4.100719424460431695e-01
4.100719424460431695e-01
4.083901709800990543e-01
4.067083995141549391e-01
4.050266280482108239e-01
4.033448565822665977e-01
4.016630851163224825e-01
3.999813136503783673e-01
3.982995421844342521e-01
3.966177707184901369e-01
3.949359992525460217e-01
3.932542277866019065e-01
3.915724563206577913e-01
3.898906848547136206e-01
3.882089133887695054e-01
3.865271419228253347e-01
3.848453704568812195e-01
3.831635989909371043e-01
3.814818275249929891e-01
3.798000560590488739e-01
3.781182845931047587e-01
3.764365131271605880e-01
3.747547416612164728e-01
3.730729701952723576e-01
3.713911987293282424e-01
3.697094272633841272e-01
3.680276557974400120e-01
3.663458843314958968e-01
3.646641128655516706e-01
3.629823413996075554e-01
3.613005699336634402e-01
3.596187984677193250e-01
3.579370270017752098e-01
3.562552555358310946e-01
3.545734840698869794e-01
3.528917126039428642e-01
3.512099411379987490e-01
3.495281696720545228e-01
3.478463982061104076e-01
3.461646267401662924e-01
3.444828552742221772e-01
3.428010838082780620e-01
3.411193123423339468e-01
3.394375408763898316e-01
3.377557694104456609e-01
3.360739979445015457e-01
3.343922264785573750e-01
3.327104550126132598e-01
3.310286835466691446e-01
3.293469120807250294e-01
3.276651406147809142e-01
3.259833691488367990e-01
3.243015976828926283e-01
3.226198262169485131e-01
3.209380547510043979e-01
3.192562832850602828e-01
3.175745118191161676e-01
3.158927403531720524e-01
3.142109688872279372e-01
3.125291974212837109e-01
3.108474259553395957e-01
3.091656544893954806e-01
3.074838830234513654e-01
3.058021115575072502e-01
3.041203400915631350e-01
3.024385686256190198e-01
3.007567971596749046e-01
2.990750256937307894e-01
2.973932542277865632e-01
2.957114827618424480e-01
2.940297112958983328e-01
2.923479398299542176e-01
2.906661683640101024e-01
2.889843968980659872e-01
2.873026254321218165e-01
2.856208539661777013e-01
2.839390825002335306e-01
2.822573110342894154e-01
2.805755395683453002e-01
2.388489208633093608e-01
2.388489208633093608e-01
2.330935251798561259e-01
5.899280575539568583e-02
5.899280575539568583e-02
5.899280575539568583e-02
5.899280575539568583e-02
5.899280575539568583e-02
5.899280575539568583e-02
4.618705035971222839e-01
5.899280575539568583e-02
5.899280575539568583e-02
5.899280575539568583e-02
5.899280575539568583e-02
5.899280575539568583e-02
5.899280575539568583e-02
4.618705035971222839e-01
5.899280575539568583e-02
5.899280575539568583e-02
5.899280575539568583e-02
5.899280575539568583e-02
5.899280575539568583e-02
5.899280575539568583e-02
5.899280575539568583e-02
4.618705035971222839e-01
5.899280575539568583e-02
5.899280575539568583e-02
5.899280575539568583e-02
5.899280575539568583e-02
5.899280575539568583e-02
5.899280575539568583e-02
5.899280575539568583e-02
4.618705035971222839e-01
5.899280575539568583e-02
5.899280575539568583e-02
5.899280575539568583e-02
5.899280575539568583e-02
5.899280575539568583e-02
5.899280575539568583e-02
2.330935251798561259e-01
2.388489208633093608e-01
2.388489208633093608e-01
2.676258992805755632e-01
4.057553956834532571e-01
4.057553956834532571e-01
4.043165467625899345e-01
2.604316546762590057e-01
2.618705035971223283e-01
2.633093525179855954e-01
2.633093525179855954e-01
2.633093525179855954e-01
2.633093525179855954e-01
4.043165467625899345e-01
4.043165467625899345e-01
4.043165467625899345e-01
2.633093525179855954e-01
2.633093525179855954e-01
2.604316546762590057e-01
2.589928057553956831e-01
2.589928057553956831e-01
2.589928057553956831e-01
2.589928057553956831e-01
2.589928057553956831e-01
2.589928057553956831e-01
2.589928057553956831e-01
2.589928057553956831e-01
2.589928057553956831e-01
2.589928057553956831e-01
2.604316546762590057e-01
2.604316546762590057e-01
2.604316546762590057e-01
2.604316546762590057e-01
2.604316546762590057e-01
2.604316546762590057e-01
2.604316546762590057e-01
2.618705035971223283e-01
2.618705035971223283e-01
2.618705035971223283e-01
2.618705035971223283e-01
2.618705035971223283e-01
2.633093525179855954e-01
2.647482014388489180e-01
2.661870503597122406e-01
2.661870503597122406e-01
2.719424460431654755e-01
2.762589928057553879e-01
2.820143884892086228e-01
2.877697841726618577e-01
2.920863309352518256e-01
2.964028776978417379e-01
3.007194244604316502e-01
3.035971223021582954e-01
3.050359712230215625e-01
3.050359712230215625e-01
3.064748201438848851e-01
3.093525179856115304e-01
3.136690647482014427e-01
3.179856115107913550e-01
3.223021582733812673e-01
3.237410071942445899e-01
3.237410071942445899e-01
3.223021582733812673e-01
3.208633093525180002e-01
3.208633093525180002e-01
3.208633093525180002e-01
3.194244604316546776e-01
3.179856115107913550e-01
3.165467625899280324e-01
3.136690647482014427e-01
3.107913669064747975e-01
3.093525179856115304e-01
3.107913669064747975e-01
3.122302158273381201e-01
3.122302158273381201e-01
3.136690647482014427e-01
3.136690647482014427e-01
3.151079136690647653e-01
3.151079136690647653e-01
3.165467625899280324e-01
3.165467625899280324e-01
3.151079136690647653e-01
3.151079136690647653e-01
3.151079136690647653e-01
3.151079136690647653e-01
3.136690647482014427e-01
3.107913669064747975e-01
3.064748201438848851e-01
3.035971223021582954e-01
3.007194244604316502e-01
3.007194244604316502e-01
2.978417266187050605e-01
2.935251798561150927e-01
2.877697841726618577e-01
2.834532374100719454e-01
2.762589928057553879e-01
2.733812949640287981e-01
2.733812949640287981e-01
2.733812949640287981e-01
2.733812949640287981e-01
2.733812949640287981e-01
2.733812949640287981e-01
2.719424460431654755e-01
2.690647482014388303e-01
2.661870503597122406e-01
2.647482014388489180e-01
2.633093525179855954e-01
2.647482014388489180e-01
2.647482014388489180e-01
2.647482014388489180e-01
2.647482014388489180e-01
2.633093525179855954e-01
2.633093525179855954e-01
2.633093525179855954e-01
2.633093525179855954e-01
2.633093525179855954e-01
2.647482014388489180e-01
2.647482014388489180e-01
2.647482014388489180e-01
2.647482014388489180e-01
2.661870503597122406e-01
2.661870503597122406e-01
2.661870503597122406e-01
2.661870503597122406e-01
2.676258992805755632e-01
2.676258992805755632e-01
2.676258992805755632e-01
2.661870503597122406e-01
2.661870503597122406e-01
2.661870503597122406e-01
2.661870503597122406e-01
2.661870503597122406e-01
2.661870503597122406e-01
2.661870503597122406e-01
2.661870503597122406e-01
2.647482014388489180e-01
2.647482014388489180e-01
2.647482014388489180e-01
2.647482014388489180e-01
2.633093525179855954e-01
2.618705035971223283e-01
2.589928057553956831e-01
2.647482014388489180e-01
2.676258992805755632e-01
2.762589928057553879e-01
2.805755395683453002e-01
2.848920863309352680e-01
2.863309352517985351e-01
2.892086330935251803e-01
2.906474820143885029e-01
2.906474820143885029e-01
2.920863309352518256e-01
2.920863309352518256e-01
2.920863309352518256e-01
2.920863309352518256e-01
2.935251798561150927e-01
2.935251798561150927e-01
2.964028776978417379e-01
2.978417266187050605e-01
3.007194244604316502e-01
2.935251798561150927e-01
2.920863309352518256e-01
2.892086330935251803e-01
2.877697841726618577e-01
2.863309352517985351e-01
2.690647482014388303e-01
2.633093525179855954e-01
2.532374100719424481e-01
2.474820143884892132e-01
2.417266187050359783e-01
2.374100719424460382e-01
2.316546762589928032e-01
2.302158273381295084e-01
2.316546762589928032e-01
2.345323741007194207e-01
2.388489208633093608e-01
2.417266187050359783e-01
2.446043165467625957e-01
2.489208633093525080e-01
2.489208633093525080e-01
2.517985611510791255e-01
2.517985611510791255e-01
2.532374100719424481e-01
2.532374100719424481e-01
2.532374100719424481e-01
2.546762589928057707e-01
2.546762589928057707e-01
2.561151079136690378e-01
2.561151079136690378e-01
2.575539568345323604e-01
2.575539568345323604e-01
2.604316546762590057e-01
2.647482014388489180e-01
2.618705035971223283e-01
2.503597122302158029e-01
2.129496402877697758e-01
1.741007194244604261e-01
1.338129496402877816e-01
5.035971223021582649e-02
1.726618705035971174e-02
1.366906474820143991e-01
1.942446043165467762e-01
2.287769784172661858e-01
6.258992805755395628e-01
2.546762589928057707e-01
2.431654676258992731e-01
2.402877697841726556e-01
2.417266187050359783e-01
2.431654676258992731e-01
2.460431654676258906e-01
2.460431654676258906e-01
2.460431654676258906e-01
2.460431654676258906e-01
2.460431654676258906e-01
2.460431654676258906e-01
2.460431654676258906e-01
2.431654676258992731e-01
2.431654676258992731e-01
2.417266187050359783e-01
2.388489208633093608e-01
2.345323741007194207e-01
2.330935251798561259e-01
2.302158273381295084e-01
2.287769784172661858e-01
2.287769784172661858e-01
2.287769784172661858e-01
2.287769784172661858e-01
2.287769784172661858e-01
2.302158273381295084e-01
2.316546762589928032e-01
2.316546762589928032e-01
2.287769784172661858e-01
2.258992805755395683e-01
2.230215827338129508e-01
2.187050359712230108e-01
2.172661870503597159e-01
2.129496402877697758e-01
2.115107913669064810e-01
2.057553956834532460e-01
2.014388489208633060e-01
1.956834532374100710e-01
1.913669064748201309e-01
1.884892086330935135e-01
1.856115107913668960e-01
1.784172661870503662e-01
1.755395683453237488e-01
1.669064748201438964e-01
1.597122302158273388e-01
1.568345323741007213e-01
1.539568345323741039e-01
1.510791366906474864e-01
1.467625899280575463e-01
1.438848920863309289e-01
1.395683453237410165e-01
1.381294964028776939e-01
1.381294964028776939e-01
1.395683453237410165e-01
1.453237410071942515e-01
1.525179856115107813e-01
1.582733812949640162e-01
1.712230215827338087e-01
1.784172661870503662e-01
1.841726618705036012e-01
1.913669064748201309e-01
1.971223021582733936e-01
2.028776978417266286e-01
2.100719424460431584e-01
2.158273381294963933e-01
2.187050359712230108e-01
2.215827338129496282e-01
2.215827338129496282e-01
2.215827338129496282e-01
2.201438848920863334e-01
2.201438848920863334e-01
2.201438848920863334e-01
2.201438848920863334e-01
2.187050359712230108e-01
2.187050359712230108e-01
2.187050359712230108e-01
2.187050359712230108e-01
2.158273381294963933e-01
2.143884892086330984e-01
2.129496402877697758e-01
2.115107913669064810e-01
2.100719424460431584e-01
2.086330935251798635e-01
2.057553956834532460e-01
2.057553956834532460e-01
2.057553956834532460e-01
2.028776978417266286e-01
2.014388489208633060e-01
2.014388489208633060e-01
1.985611510791366885e-01
1.985611510791366885e-01
1.985611510791366885e-01
1.000000000000000000e+00
6.014388489208633004e-01
2.043165467625899234e-01
2.043165467625899234e-01
2.057553956834532460e-01
2.071942446043165409e-01
2.071942446043165409e-01
2.086330935251798635e-01
2.086330935251798635e-01
2.086330935251798635e-01
2.115107913669064810e-01
2.115107913669064810e-01
2.143884892086330984e-01
2.143884892086330984e-01
2.129496402877697758e-01
2.129496402877697758e-01
2.172661870503597159e-01
2.172661870503597159e-01
2.172661870503597159e-01
2.158273381294963933e-01
2.172661870503597159e-01
2.187050359712230108e-01
2.201438848920863334e-01
2.230215827338129508e-01
2.230215827338129508e-01
2.230215827338129508e-01
2.230215827338129508e-01
2.230215827338129508e-01
2.230215827338129508e-01
2.230215827338129508e-01
2.230215827338129508e-01
2.230215827338129508e-01
2.230215827338129508e-01
2.230215827338129508e-01
2.230215827338129508e-01
2.244604316546762457e-01
2.244604316546762457e-01
2.258992805755395683e-01
2.258992805755395683e-01
2.273381294964028909e-01
2.273381294964028909e-01
2.273381294964028909e-01
2.287769784172661858e-01
2.287769784172661858e-01
2.287769784172661858e-01
2.287769784172661858e-01
2.316546762589928032e-01
2.345323741007194207e-01
2.345323741007194207e-01
2.374100719424460382e-01
2.402877697841726556e-01
2.431654676258992731e-01
2.446043165467625957e-01
2.460431654676258906e-01
2.474820143884892132e-01
2.489208633093525080e-01
2.517985611510791255e-01
2.546762589928057707e-01
2.575539568345323604e-01
2.575539568345323604e-01
2.561151079136690378e-01
2.604316546762590057e-01
2.618705035971223283e-01
2.661870503597122406e-01
2.690647482014388303e-01
2.748201438848920652e-01
2.820143884892086228e-01
2.906474820143885029e-01
2.949640287769784153e-01
2.935251798561150927e-01
2.877697841726618577e-01
2.863309352517985351e-01
2.848920863309352680e-01
2.848920863309352680e-01
2.848920863309352680e-01
2.848920863309352680e-01
2.848920863309352680e-01
2.848920863309352680e-01
2.848920863309352680e-01
2.848920863309352680e-01
2.848920863309352680e-01
2.848920863309352680e-01
2.848920863309352680e-01
2.863309352517985351e-01
2.877697841726618577e-01
2.906474820143885029e-01
2.920863309352518256e-01
2.920863309352518256e-01
2.906474820143885029e-01
2.920863309352518256e-01
2.964028776978417379e-01
2.992805755395683276e-01
3.021582733812949728e-01
3.035971223021582954e-01
3.021582733812949728e-01
3.021582733812949728e-01
3.021582733812949728e-01
3.021582733812949728e-01
3.007194244604316502e-01
3.007194244604316502e-01
3.021582733812949728e-01
3.007194244604316502e-01
3.007194244604316502e-01
3.007194244604316502e-01
3.021582733812949728e-01
3.021582733812949728e-01
3.021582733812949728e-01
3.021582733812949728e-01
3.035971223021582954e-01
3.050359712230215625e-01
3.079136690647482077e-01
3.122302158273381201e-01
3.136690647482014427e-01
3.122302158273381201e-01
3.122302158273381201e-01
3.122302158273381201e-01
3.122302158273381201e-01
3.136690647482014427e-01
3.136690647482014427e-01
3.136690647482014427e-01
3.136690647482014427e-01
3.136690647482014427e-01
3.107913669064747975e-01
3.079136690647482077e-01
3.050359712230215625e-01
3.035971223021582954e-01
3.007194244604316502e-01
3.007194244604316502e-01
2.992805755395683276e-01
2.978417266187050605e-01
2.949640287769784153e-01
2.920863309352518256e-01
2.920863309352518256e-01
2.949640287769784153e-01
2.992805755395683276e-01
3.021582733812949728e-01
3.079136690647482077e-01
3.122302158273381201e-01
3.165467625899280324e-01
3.251798561151079126e-01
3.266187050359712352e-01
3.294964028776978249e-01
3.338129496402877927e-01
3.381294964028777050e-01
3.395683453237410276e-01
3.424460431654676174e-01
3.453237410071942626e-01
3.482014388489208523e-01
3.510791366906474975e-01
3.568345323741007324e-01
3.582733812949640551e-01
3.625899280575539674e-01
3.625899280575539674e-01
3.625899280575539674e-01
3.625899280575539674e-01
3.510791366906474975e-01
3.294964028776978249e-01
2.848920863309352680e-01
2.258992805755395683e-01
1.453237410071942515e-01
9.208633093525180058e-02
1.366906474820143991e-01
2.014388489208633060e-01
2.633093525179855954e-01
3.366906474820143824e-01
3.438848920863309400e-01
3.395683453237410276e-01
3.352517985611510598e-01
3.323741007194244701e-01
3.309352517985611475e-01
3.294964028776978249e-01
3.280575539568345578e-01
3.266187050359712352e-01
3.266187050359712352e-01
3.237410071942445899e-01
3.237410071942445899e-01
3.223021582733812673e-01
3.208633093525180002e-01
3.208633093525180002e-01
3.194244604316546776e-01
3.179856115107913550e-01
3.165467625899280324e-01
3.151079136690647653e-01
3.151079136690647653e-01
3.122302158273381201e-01
3.093525179856115304e-01
3.079136690647482077e-01
3.050359712230215625e-01
3.035971223021582954e-01
2.992805755395683276e-01
2.964028776978417379e-01
2.935251798561150927e-01
2.877697841726618577e-01
2.834532374100719454e-01
2.776978417266187105e-01
2.805755395683453002e-01
2.805755395683453002e-01
2.805755395683453002e-01
2.805755395683453002e-01
2.805755395683453002e-01
2.805755395683453002e-01
4.215827338129496393e-01
4.172661870503597270e-01
4.172661870503597270e-01
4.043165467625899345e-01
3.985611510791366996e-01
3.985611510791366996e-01
4.043165467625899345e-01
3.985611510791366996e-01
3.985611510791366996e-01
4.043165467625899345e-01
4.014388489208632893e-01
4.129496402877697592e-01
4.143884892086330818e-01
4.187050359712229941e-01
2.172661870503597159e-01
2.172661870503597159e-01
2.244604316546762457e-01
3.021582733812949728e-01
2.431654676258992731e-01
3.151079136690647653e-01
3.884892086330935523e-01
4.014388489208632893e-01
4.086330935251798468e-01
4.129496402877697592e-01
4.187050359712229941e-01
4.273381294964028743e-01
3.568345323741007324e-01
4.258992805755395517e-01
4.215827338129496393e-01
4.143884892086330818e-01
4.057553956834532571e-01
3.985611510791366996e-01
3.899280575539568194e-01
3.841726618705035845e-01
3.812949640287769948e-01
3.784172661870503496e-01
2.834532374100719454e-01
2.805755395683453002e-01
2.805755395683453002e-01
3.784172661870503496e-01
4.014388489208632893e-01
4.028776978417266119e-01
4.057553956834532571e-01
2.920863309352518256e-01
3.625899280575539674e-01
2.949640287769784153e-01
2.935251798561150927e-01
3.611510791366906448e-01
4.330935251798561092e-01
3.568345323741007324e-01
3.568345323741007324e-01
2.863309352517985351e-01
3.611510791366906448e-01
4.330935251798561092e-01
2.848920863309352680e-01
2.848920863309352680e-01
2.848920863309352680e-01
2.848920863309352680e-01
2.848920863309352680e-01
2.848920863309352680e-01
2.863309352517985351e-01
2.863309352517985351e-01
2.848920863309352680e-01
2.848920863309352680e-01
2.848920863309352680e-01
2.834532374100719454e-01
2.820143884892086228e-01
2.820143884892086228e-01
2.820143884892086228e-01
2.820143884892086228e-01
2.820143884892086228e-01
2.848920863309352680e-01
2.848920863309352680e-01
2.848920863309352680e-01
2.848920863309352680e-01
2.820143884892086228e-01
2.820143884892086228e-01
2.820143884892086228e-01
2.820143884892086228e-01
2.820143884892086228e-01
2.820143884892086228e-01
2.820143884892086228e-01
2.848920863309352680e-01
2.863309352517985351e-01
2.877697841726618577e-01
2.863309352517985351e-01
2.863309352517985351e-01
2.863309352517985351e-01
2.863309352517985351e-01
2.863309352517985351e-01
2.848920863309352680e-01
2.848920863309352680e-01
2.848920863309352680e-01
2.848920863309352680e-01
2.834532374100719454e-01
2.820143884892086228e-01
2.820143884892086228e-01
2.798561151079136944e-01
2.776978417266187105e-01
2.776978417266187105e-01
2.762589928057553879e-01
2.762589928057553879e-01
2.762589928057553879e-01
2.762589928057553879e-01
2.776978417266187105e-01
2.805755395683453002e-01
2.848920863309352680e-01
2.848920863309352680e-01
2.848920863309352680e-01
2.863309352517985351e-01
2.863309352517985351e-01
2.863309352517985351e-01
2.848920863309352680e-01
2.848920863309352680e-01
2.848920863309352680e-01
2.834532374100719454e-01
2.820143884892086228e-01
2.834532374100719454e-01
2.863309352517985351e-01
2.892086330935251803e-01
2.906474820143885029e-01
2.892086330935251803e-01
2.892086330935251803e-01
2.892086330935251803e-01
2.877697841726618577e-01
2.863309352517985351e-01
2.820143884892086228e-01
2.791366906474820331e-01
2.805755395683453002e-01
2.805755395683453002e-01
2.805755395683453002e-01
2.805755395683453002e-01
2.805755395683453002e-01
2.805755395683453002e-01
2.791366906474820331e-01
2.791366906474820331e-01
2.762589928057553879e-01
2.762589928057553879e-01
2.748201438848920652e-01
2.748201438848920652e-01
2.748201438848920652e-01
2.733812949640287981e-01
2.705035971223021529e-01
2.705035971223021529e-01
2.705035971223021529e-01
2.719424460431654755e-01
2.719424460431654755e-01
2.705035971223021529e-01
2.705035971223021529e-01
2.705035971223021529e-01
2.719424460431654755e-01
2.719424460431654755e-01
2.748201438848920652e-01
2.748201438848920652e-01
2.762589928057553879e-01
2.762589928057553879e-01
2.762589928057553879e-01
2.762589928057553879e-01
2.762589928057553879e-01
2.762589928057553879e-01
2.762589928057553879e-01
2.762589928057553879e-01
2.762589928057553879e-01
2.748201438848920652e-01
2.748201438848920652e-01
2.733812949640287981e-01
2.733812949640287981e-01
2.733812949640287981e-01
2.748201438848920652e-01
2.748201438848920652e-01
2.762589928057553879e-01
2.776978417266187105e-01
2.791366906474820331e-01
2.805755395683453002e-01
2.820143884892086228e-01
2.834532374100719454e-01
2.863309352517985351e-01
2.863309352517985351e-01
2.877697841726618577e-01
2.892086330935251803e-01
2.892086330935251803e-01
2.892086330935251803e-01
2.906474820143885029e-01
2.935251798561150927e-01
2.949640287769784153e-01
2.949640287769784153e-01
2.949640287769784153e-01
2.949640287769784153e-01
2.949640287769784153e-01
2.964028776978417379e-01
2.964028776978417379e-01
2.949640287769784153e-01
2.949640287769784153e-01
2.920863309352518256e-01
2.906474820143885029e-01
2.892086330935251803e-01
2.892086330935251803e-01
2.892086330935251803e-01
2.906474820143885029e-01
2.877697841726618577e-01
2.834532374100719454e-01
2.820143884892086228e-01
2.848920863309352680e-01
2.848920863309352680e-01
2.848920863309352680e-01
2.848920863309352680e-01
2.848920863309352680e-01
2.863309352517985351e-01
2.892086330935251803e-01
2.892086330935251803e-01
2.906474820143885029e-01
2.906474820143885029e-01
2.906474820143885029e-01
2.906474820143885029e-01
2.892086330935251803e-01
2.877697841726618577e-01
2.877697841726618577e-01
2.877697841726618577e-01
2.877697841726618577e-01
2.863309352517985351e-01
2.863309352517985351e-01
2.863309352517985351e-01
2.863309352517985351e-01
2.848920863309352680e-01
2.776978417266187105e-01
2.719424460431654755e-01
9.625899280575539452e-01
9.179856115107913883e-01
8.546762589928057485e-01
8.258992805755395183e-01
8.834532374100719787e-01
9.021582733812949506e-01
3.525179856115107646e-01
3.381294964028777050e-01
3.251798561151079126e-01
3.122302158273381201e-01
3.050359712230215625e-01
3.035971223021582954e-01
3.050359712230215625e-01
3.050359712230215625e-01
3.035971223021582954e-01
3.021582733812949728e-01
3.007194244604316502e-01
2.992805755395683276e-01
3.007194244604316502e-01
3.007194244604316502e-01
3.007194244604316502e-01
3.007194244604316502e-01
3.007194244604316502e-01
2.978417266187050605e-01
2.992805755395683276e-01
3.007194244604316502e-01
3.021582733812949728e-01
3.007194244604316502e-01
3.021582733812949728e-01
3.035971223021582954e-01
3.035971223021582954e-01
3.035971223021582954e-01
3.035971223021582954e-01
3.007194244604316502e-01
3.007194244604316502e-01
3.007194244604316502e-01
2.978417266187050605e-01
2.964028776978417379e-01
2.935251798561150927e-01
2.920863309352518256e-01
2.892086330935251803e-01
2.892086330935251803e-01
2.877697841726618577e-01
2.877697841726618577e-01
2.820143884892086228e-01
2.791366906474820331e-01
2.762589928057553879e-01
2.748201438848920652e-01
2.719424460431654755e-01
2.705035971223021529e-01
2.690647482014388303e-01
6.330935251798560648e-01
6.316546762589928532e-01
6.287769784172662080e-01
2.633093525179855954e-01
6.273381294964028854e-01
2.604316546762590057e-01
2.604316546762590057e-01
2.604316546762590057e-01
2.661870503597122406e-01
2.705035971223021529e-01
6.359712230215827100e-01
6.388489208633093552e-01
2.863309352517985351e-01
2.906474820143885029e-01
2.920863309352518256e-01
2.949640287769784153e-01
2.964028776978417379e-01
2.992805755395683276e-01
3.035971223021582954e-01
3.035971223021582954e-01
3.064748201438848851e-01
3.079136690647482077e-01
3.079136690647482077e-01
3.079136690647482077e-01
3.079136690647482077e-01
3.079136690647482077e-01
3.079136690647482077e-01
3.064748201438848851e-01
3.064748201438848851e-01
3.035971223021582954e-01
3.035971223021582954e-01
3.007194244604316502e-01
3.007194244604316502e-01
3.007194244604316502e-01
3.007194244604316502e-01
3.007194244604316502e-01
2.978417266187050605e-01
2.978417266187050605e-01
2.935251798561150927e-01
2.920863309352518256e-01
2.935251798561150927e-01
2.949640287769784153e-01
2.949640287769784153e-01
2.920863309352518256e-01
2.920863309352518256e-01
2.906474820143885029e-01
2.920863309352518256e-01
2.935251798561150927e-01
2.920863309352518256e-01
2.906474820143885029e-01
2.863309352517985351e-01
2.863309352517985351e-01
2.863309352517985351e-01
2.863309352517985351e-01
2.877697841726618577e-01
2.863309352517985351e-01
2.805755395683453002e-01
2.776978417266187105e-01
2.762589928057553879e-01
2.762589928057553879e-01
2.762589928057553879e-01
2.776978417266187105e-01
2.791366906474820331e-01
2.820143884892086228e-01
2.820143884892086228e-01
2.848920863309352680e-01
2.848920863309352680e-01
2.820143884892086228e-01
2.791366906474820331e-01
2.791366906474820331e-01
2.820143884892086228e-01
2.863309352517985351e-01
2.877697841726618577e-01
2.848920863309352680e-01
2.848920863309352680e-01
2.791366906474820331e-01
2.805755395683453002e-01
2.805755395683453002e-01
2.791366906474820331e-01
2.791366906474820331e-01
2.805755395683453002e-01
2.805755395683453002e-01
2.805755395683453002e-01
2.791366906474820331e-01
2.776978417266187105e-01
2.762589928057553879e-01
2.762589928057553879e-01
2.762589928057553879e-01
2.762589928057553879e-01
2.776978417266187105e-01
2.791366906474820331e-01
2.791366906474820331e-01
2.791366906474820331e-01
2.762589928057553879e-01
2.772182254196642881e-01
2.781774580335731328e-01
2.791366906474820331e-01
2.791366906474820331e-01
2.805755395683453002e-01
2.805755395683453002e-01
2.805755395683453002e-01
2.820143884892086228e-01
2.820143884892086228e-01
2.776978417266187105e-01
2.733812949640287981e-01
2.719424460431654755e-01
2.748201438848920652e-01
2.733812949640287981e-01
2.719424460431654755e-01
2.690647482014388303e-01
2.690647482014388303e-01
2.690647482014388303e-01
2.676258992805755632e-01
2.676258992805755632e-01
2.676258992805755632e-01
2.676258992805755632e-01
2.690647482014388303e-01
2.676258992805755632e-01
2.661870503597122406e-01
2.661870503597122406e-01
2.661870503597122406e-01
2.661870503597122406e-01
2.661870503597122406e-01
2.661870503597122406e-01
2.661870503597122406e-01
2.661870503597122406e-01
2.676258992805755632e-01
2.676258992805755632e-01
2.690647482014388303e-01
2.719424460431654755e-01
2.719424460431654755e-01
2.705035971223021529e-01
2.661870503597122406e-01
2.647482014388489180e-01
2.640287769784172567e-01
2.633093525179855954e-01
2.633093525179855954e-01
2.633093525179855954e-01
2.661870503597122406e-01
2.661870503597122406e-01
2.676258992805755632e-01
2.661870503597122406e-01
2.661870503597122406e-01
2.676258992805755632e-01
2.676258992805755632e-01
2.676258992805755632e-01
2.676258992805755632e-01
2.676258992805755632e-01
2.690647482014388303e-01
2.690647482014388303e-01
2.690647482014388303e-01
2.690647482014388303e-01
2.690647482014388303e-01
2.705035971223021529e-01
2.705035971223021529e-01
2.705035971223021529e-01
2.719424460431654755e-01
2.748201438848920652e-01
2.733812949640287981e-01
2.705035971223021529e-01
2.647482014388489180e-01
2.633093525179855954e-01
2.647482014388489180e-01
2.647482014388489180e-01
2.647482014388489180e-01
2.661870503597122406e-01
2.647482014388489180e-01
2.647482014388489180e-01
2.618705035971223283e-01
2.633093525179855954e-01
2.633093525179855954e-01
2.633093525179855954e-01
2.633093525179855954e-01
2.633093525179855954e-01
2.633093525179855954e-01
2.633093525179855954e-01
2.633093525179855954e-01
2.633093525179855954e-01
2.618705035971223283e-01
2.589928057553956831e-01
2.589928057553956831e-01
2.561151079136690378e-01
2.575539568345323604e-01
2.575539568345323604e-01
2.575539568345323604e-01
2.575539568345323604e-01
2.575539568345323604e-01
2.546762589928057707e-01
2.546762589928057707e-01
2.532374100719424481e-01
2.532374100719424481e-01
2.532374100719424481e-01
2.532374100719424481e-01
2.546762589928057707e-01
2.532374100719424481e-01
2.546762589928057707e-01
2.575539568345323604e-01
2.604316546762590057e-01
2.618705035971223283e-01
2.604316546762590057e-01
2.604316546762590057e-01
2.589928057553956831e-01
2.604316546762590057e-01
2.647482014388489180e-01
2.690647482014388303e-01
2.733812949640287981e-01
2.748201438848920652e-01
2.762589928057553879e-01
2.762589928057553879e-01
2.805755395683453002e-01
2.805755395683453002e-01
2.776978417266187105e-01
2.805755395683453002e-01
2.992805755395683276e-01
3.884892086330935523e-01
5.597122302158273888e-01
6.935251798561150594e-01
8.258992805755395183e-01
8.043165467625899012e-01
7.539568345323740539e-01
6.345323741007193874e-01
5.539568345323740983e-01
4.719424460431654866e-01
3.755395683453237599e-01
3.237410071942445899e-01
2.964028776978417379e-01
4.115107913669064921e-01
4.014388489208632893e-01
3.985611510791366996e-01
3.899280575539568194e-01
3.841726618705035845e-01
3.812949640287769948e-01
3.784172661870503496e-01
2.402877697841726556e-01
2.402877697841726556e-01
3.841726618705035845e-01
3.856115107913669071e-01
3.841726618705035845e-01
4.244604316546762846e-01
4.028776978417266119e-01
4.187050359712229941e-01
4.172661870503597270e-01
4.129496402877697592e-01
3.841726618705035845e-01
3.841726618705035845e-01
4.014388489208632893e-01
3.928057553956834647e-01
3.942446043165467873e-01
3.928057553956834647e-01
3.251798561151079126e-01
2.143884892086330984e-01
9.913669064748201754e-01
5.942446043165467984e-01
5.899280575539568305e-01
9.741007194244604150e-01
9.654676258992805904e-01
9.597122302158273000e-01
1.769784172661870436e-01
9.453237410071942959e-01
5.496402877697841305e-01
5.438848920863309511e-01
9.223021582733812451e-01
9.165467625899280657e-01
9.107913669064747753e-01
5.179856115107913661e-01
9.021582733812949506e-01
8.992805755395683054e-01
5.107913669064748641e-01
8.978417266187049828e-01
8.978417266187049828e-01
1.309352517985611641e-01
1.410071942446043114e-01
5.323741007194244812e-01
9.179856115107913883e-01
1.827338129496402785e-01
9.438848920863309733e-01
5.827338129496403285e-01
9.741007194244604150e-01
6.057553956834532682e-01
2.316546762589928032e-01
2.374100719424460382e-01
2.460431654676258906e-01
2.517985611510791255e-01
2.575539568345323604e-01
2.604316546762590057e-01
2.618705035971223283e-01
2.618705035971223283e-01
2.618705035971223283e-01
2.618705035971223283e-01
2.618705035971223283e-01
2.618705035971223283e-01
2.618705035971223283e-01
2.618705035971223283e-01
2.618705035971223283e-01
2.618705035971223283e-01
2.618705035971223283e-01
2.604316546762590057e-01
2.604316546762590057e-01
2.575539568345323604e-01
2.575539568345323604e-01
2.561151079136690378e-01
2.575539568345323604e-01
2.575539568345323604e-01
2.575539568345323604e-01
2.589928057553956831e-01
2.604316546762590057e-01
2.604316546762590057e-01
2.618705035971223283e-01
2.633093525179855954e-01
2.633093525179855954e-01
2.647482014388489180e-01
2.647482014388489180e-01
2.661870503597122406e-01
2.661870503597122406e-01
2.676258992805755632e-01
2.690647482014388303e-01
2.690647482014388303e-01
2.690647482014388303e-01
2.705035971223021529e-01
2.705035971223021529e-01
2.719424460431654755e-01
2.719424460431654755e-01
2.733812949640287981e-01
2.733812949640287981e-01
2.748201438848920652e-01
2.748201438848920652e-01
2.762589928057553879e-01
2.762589928057553879e-01
2.762589928057553879e-01
2.762589928057553879e-01
2.781774580335731328e-01
2.800959232613909333e-01
2.820143884892086228e-01
2.820143884892086228e-01
2.848920863309352680e-01
2.848920863309352680e-01
2.848920863309352680e-01
2.848920863309352680e-01
2.863309352517985351e-01
2.863309352517985351e-01
2.863309352517985351e-01
2.863309352517985351e-01
2.877697841726618577e-01
2.877697841726618577e-01
2.892086330935251803e-01
2.892086330935251803e-01
2.892086330935251803e-01
2.906474820143885029e-01
2.906474820143885029e-01
2.906474820143885029e-01
2.906474820143885029e-01
2.906474820143885029e-01
2.906474820143885029e-01
2.906474820143885029e-01
2.906474820143885029e-01
2.906474820143885029e-01
2.906474820143885029e-01
2.906474820143885029e-01
2.906474820143885029e-01
2.906474820143885029e-01
2.906474820143885029e-01
2.906474820143885029e-01
2.906474820143885029e-01
2.906474820143885029e-01
2.906474820143885029e-01
2.906474820143885029e-01
2.906474820143885029e-01
2.906474820143885029e-01
2.906474820143885029e-01
2.906474820143885029e-01
2.906474820143885029e-01
2.906474820143885029e-01
2.906474820143885029e-01
2.906474820143885029e-01
2.906474820143885029e-01
2.906474820143885029e-01
2.906474820143885029e-01
2.906474820143885029e-01
2.906474820143885029e-01
2.906474820143885029e-01
2.920863309352518256e-01
2.920863309352518256e-01
2.920863309352518256e-01
2.935251798561150927e-01
2.935251798561150927e-01
2.949640287769784153e-01
2.949640287769784153e-01
2.949640287769784153e-01
2.935251798561150927e-01
2.935251798561150927e-01
2.935251798561150927e-01
2.935251798561150927e-01
2.920863309352518256e-01
2.920863309352518256e-01
2.920863309352518256e-01
2.920863309352518256e-01
2.920863309352518256e-01
2.877697841726618577e-01
2.863309352517985351e-01
2.848920863309352680e-01
2.848920863309352680e-01
2.848920863309352680e-01
2.848920863309352680e-01
2.863309352517985351e-01
2.863309352517985351e-01
2.863309352517985351e-01
2.877697841726618577e-01
2.877697841726618577e-01
2.877697841726618577e-01
2.884892086330935190e-01
2.892086330935251803e-01
2.892086330935251803e-01
2.892086330935251803e-01
2.892086330935251803e-01
2.892086330935251803e-01
2.892086330935251803e-01
2.877697841726618577e-01
2.877697841726618577e-01
2.863309352517985351e-01
2.863309352517985351e-01
2.848920863309352680e-01
2.848920863309352680e-01
2.848920863309352680e-01
2.848920863309352680e-01
2.834532374100719454e-01
2.820143884892086228e-01
2.820143884892086228e-01
2.762589928057553879e-01
2.748201438848920652e-01
2.733812949640287981e-01
2.719424460431654755e-01
2.690647482014388303e-01
2.676258992805755632e-01
2.661870503597122406e-01
2.690647482014388303e-01
2.705035971223021529e-01
2.719424460431654755e-01
2.748201438848920652e-01
2.748201438848920652e-01
2.748201438848920652e-01
2.748201438848920652e-01
2.762589928057553879e-01
2.762589928057553879e-01
2.762589928057553879e-01
2.762589928057553879e-01
2.762589928057553879e-01
2.791366906474820331e-01
2.791366906474820331e-01
2.781774580335731328e-01
2.772182254196642881e-01
2.762589928057553879e-01
2.762589928057553879e-01
2.748201438848920652e-01
2.748201438848920652e-01
2.748201438848920652e-01
2.575539568345323604e-01
2.330935251798561259e-01
2.129496402877697758e-01
1.985611510791366885e-01
3.035971223021582954e-01
4.158273381294964044e-01
5.784172661870503607e-01
7.525179856115108423e-01
8.705035971223021862e-01
8.964028776978417712e-01
8.316546762589928088e-01
7.223021582733812895e-01
5.956834532374101210e-01
4.920863309352517811e-01
3.841726618705035845e-01
3.093525179856115304e-01
2.733812949640287981e-01
2.517985611510791255e-01
2.374100719424460382e-01
2.302158273381295084e-01
2.258992805755395683e-01
2.215827338129496282e-01
2.172661870503597159e-01
2.158273381294963933e-01
2.100719424460431584e-01
2.100719424460431584e-01
2.057553956834532460e-01
2.057553956834532460e-01
2.057553956834532460e-01
2.028776978417266286e-01
6.014388489208633004e-01
2.028776978417266286e-01
9.913669064748201754e-01
5.928057553956834758e-01
5.913669064748201532e-01
9.856115107913668849e-01
5.870503597122301853e-01
5.841726618705036511e-01
5.827338129496403285e-01
9.741007194244604150e-01
5.741007194244603928e-01
5.726618705035970702e-01
5.654676258992805682e-01
5.611510791366906004e-01
5.553956834532374209e-01
5.496402877697841305e-01
5.410071942446043058e-01
5.338129496402878038e-01
1.395683453237410165e-01
1.309352517985611641e-01
1.208633093525179891e-01
1.107913669064748141e-01
4.935251798561151038e-01
9.064748201438849184e-02
8.345323741007194818e-02
4.719424460431654866e-01
8.647482014388488958e-01
8.647482014388488958e-01
4.647482014388489291e-01
6.762589928057553823e-02
4.676258992805755188e-01
8.201438848920863944e-02
9.496402877697841804e-02
1.093525179856115054e-01
1.266187050359712241e-01
1.438848920863309289e-01
1.640287769784172789e-01
1.798561151079136611e-01
5.669064748201438908e-01
5.827338129496403285e-01
9.741007194244604150e-01
2.273381294964028909e-01
2.273381294964028909e-01
2.316546762589928032e-01
2.374100719424460382e-01
2.417266187050359783e-01
2.460431654676258906e-01
2.460431654676258906e-01
2.460431654676258906e-01
2.460431654676258906e-01
2.474820143884892132e-01
2.474820143884892132e-01
2.474820143884892132e-01
2.474820143884892132e-01
2.474820143884892132e-01
2.474820143884892132e-01
2.474820143884892132e-01
2.460431654676258906e-01
2.446043165467625957e-01
2.446043165467625957e-01
2.431654676258992731e-01
2.431654676258992731e-01
2.417266187050359783e-01
2.417266187050359783e-01
2.431654676258992731e-01
2.431654676258992731e-01
2.431654676258992731e-01
2.431654676258992731e-01
2.431654676258992731e-01
2.431654676258992731e-01
2.431654676258992731e-01
2.431654676258992731e-01
2.431654676258992731e-01
2.446043165467625957e-01
2.446043165467625957e-01
2.446043165467625957e-01
2.460431654676258906e-01
2.460431654676258906e-01
2.474820143884892132e-01
2.503597122302158029e-01
2.532374100719424481e-01
2.546762589928057707e-01
2.561151079136690378e-01
2.575539568345323604e-01
2.575539568345323604e-01
2.575539568345323604e-01
2.589928057553956831e-01
2.589928057553956831e-01
2.589928057553956831e-01
2.604316546762590057e-01
2.604316546762590057e-01
2.604316546762590057e-01
2.604316546762590057e-01
2.589928057553956831e-01
2.589928057553956831e-01
2.604316546762590057e-01
2.604316546762590057e-01
2.604316546762590057e-01
2.604316546762590057e-01
2.618705035971223283e-01
2.618705035971223283e-01
2.633093525179855954e-01
2.633093525179855954e-01
2.633093525179855954e-01
2.633093525179855954e-01
2.647482014388489180e-01
2.661870503597122406e-01
2.661870503597122406e-01
2.661870503597122406e-01
2.676258992805755632e-01
2.690647482014388303e-01
2.690647482014388303e-01
2.690647482014388303e-01
2.705035971223021529e-01
2.705035971223021529e-01
2.719424460431654755e-01
2.719424460431654755e-01
2.733812949640287981e-01
2.748201438848920652e-01
2.748201438848920652e-01
2.748201438848920652e-01
2.762589928057553879e-01
2.762589928057553879e-01
2.762589928057553879e-01
2.791366906474820331e-01
2.776978417266187105e-01
2.762589928057553879e-01
2.762589928057553879e-01
2.762589928057553879e-01
2.762589928057553879e-01
2.762589928057553879e-01
2.762589928057553879e-01
2.748201438848920652e-01
2.748201438848920652e-01
2.748201438848920652e-01
2.748201438848920652e-01
2.748201438848920652e-01
2.733812949640287981e-01
2.748201438848920652e-01
2.748201438848920652e-01
2.748201438848920652e-01
2.748201438848920652e-01
2.748201438848920652e-01
2.748201438848920652e-01
2.748201438848920652e-01
2.733812949640287981e-01
2.748201438848920652e-01
2.748201438848920652e-01
2.748201438848920652e-01
2.748201438848920652e-01
2.762589928057553879e-01
2.762589928057553879e-01
2.762589928057553879e-01
2.762589928057553879e-01
2.762589928057553879e-01
2.762589928057553879e-01
2.762589928057553879e-01
2.762589928057553879e-01
2.762589928057553879e-01
2.762589928057553879e-01
2.762589928057553879e-01
2.762589928057553879e-01
2.762589928057553879e-01
2.776978417266187105e-01
2.791366906474820331e-01
2.791366906474820331e-01
2.791366906474820331e-01
2.762589928057553879e-01
2.762589928057553879e-01
2.762589928057553879e-01
2.762589928057553879e-01
2.762589928057553879e-01
2.762589928057553879e-01
2.748201438848920652e-01
2.748201438848920652e-01
2.748201438848920652e-01
2.733812949640287981e-01
2.733812949640287981e-01
2.733812949640287981e-01
2.719424460431654755e-01
2.705035971223021529e-01
2.705035971223021529e-01
2.705035971223021529e-01
2.719424460431654755e-01
2.719424460431654755e-01
2.748201438848920652e-01
2.748201438848920652e-01
2.762589928057553879e-01
2.762589928057553879e-01
2.776978417266187105e-01
2.791366906474820331e-01
2.791366906474820331e-01
2.805755395683453002e-01
2.820143884892086228e-01
2.820143884892086228e-01
2.820143884892086228e-01
2.848920863309352680e-01
2.848920863309352680e-01
2.848920863309352680e-01
2.848920863309352680e-01
2.848920863309352680e-01
2.877697841726618577e-01
2.863309352517985351e-01
2.863309352517985351e-01
2.863309352517985351e-01
2.820143884892086228e-01
2.589928057553956831e-01
2.316546762589928032e-01
2.028776978417266286e-01
1.971223021582733936e-01
3.223021582733812673e-01
4.546762589928057818e-01
6.086330935251798024e-01
7.712230215827338142e-01
8.805755395683453335e-01
8.517985611510791033e-01
7.021582733812949950e-01
5.755395683453237154e-01
5.151079136690647209e-01
3.438848920863309400e-01
2.805755395683453002e-01
2.863309352517985351e-01
3.798561151079136722e-01
3.856115107913669071e-01
3.942446043165467873e-01
4.000000000000000222e-01
4.071942446043165242e-01
4.158273381294964044e-01
4.244604316546762846e-01
4.287769784172661969e-01
4.316546762589927866e-01
4.258992805755395517e-01
4.230215827338129619e-01
4.158273381294964044e-01
4.071942446043165242e-01
4.000000000000000222e-01
3.913669064748201420e-01
3.841726618705035845e-01
3.798561151079136722e-01
3.237410071942445899e-01
2.647482014388489180e-01
2.633093525179855954e-01
3.496402877697841749e-01
3.899280575539568194e-01
3.913669064748201420e-01
3.913669064748201420e-01
4.000000000000000222e-01
3.899280575539568194e-01
3.798561151079136722e-01
3.899280575539568194e-01
4.000000000000000222e-01
4.000000000000000222e-01
4.014388489208632893e-01
4.057553956834532571e-01
4.057553956834532571e-01
4.115107913669064921e-01
4.129496402877697592e-01
2.273381294964028909e-01
2.215827338129496282e-01
2.158273381294963933e-01
2.086330935251798635e-01
2.028776978417266286e-01
1.956834532374100710e-01
1.913669064748201309e-01
1.870503597122302186e-01
1.827338129496402785e-01
1.798561151079136611e-01
1.755395683453237488e-01
1.741007194244604261e-01
1.741007194244604261e-01
1.769784172661870436e-01
1.812949640287769837e-01
1.913669064748201309e-01
1.985611510791366885e-01
2.115107913669064810e-01
2.201438848920863334e-01
2.316546762589928032e-01
2.417266187050359783e-01
2.517985611510791255e-01
2.589928057553956831e-01
2.661870503597122406e-01
2.719424460431654755e-01
2.776978417266187105e-01
2.820143884892086228e-01
2.863309352517985351e-01
2.863309352517985351e-01
2.892086330935251803e-01
2.892086330935251803e-01
2.920863309352518256e-01
2.935251798561150927e-01
2.964028776978417379e-01
2.964028776978417379e-01
2.964028776978417379e-01
2.964028776978417379e-01
2.964028776978417379e-01
2.964028776978417379e-01
2.964028776978417379e-01
2.964028776978417379e-01
2.964028776978417379e-01
2.949640287769784153e-01
2.949640287769784153e-01
2.949640287769784153e-01
2.949640287769784153e-01
2.949640287769784153e-01
2.949640287769784153e-01
2.949640287769784153e-01
2.949640287769784153e-01
2.949640287769784153e-01
2.949640287769784153e-01
2.949640287769784153e-01
2.949640287769784153e-01
2.978417266187050605e-01
2.978417266187050605e-01
3.007194244604316502e-01
3.007194244604316502e-01
3.021582733812949728e-01
3.021582733812949728e-01
3.021582733812949728e-01
3.035971223021582954e-01
3.050359712230215625e-01
3.064748201438848851e-01
3.064748201438848851e-01
3.064748201438848851e-01
3.079136690647482077e-01
3.079136690647482077e-01
3.093525179856115304e-01
3.093525179856115304e-01
3.093525179856115304e-01
3.122302158273381201e-01
3.122302158273381201e-01
3.107913669064747975e-01
3.122302158273381201e-01
3.122302158273381201e-01
3.122302158273381201e-01
3.122302158273381201e-01
3.122302158273381201e-01
3.107913669064747975e-01
3.107913669064747975e-01
3.122302158273381201e-01
3.122302158273381201e-01
3.151079136690647653e-01
3.151079136690647653e-01
3.151079136690647653e-01
3.151079136690647653e-01
3.151079136690647653e-01
3.151079136690647653e-01
3.151079136690647653e-01
3.151079136690647653e-01
3.151079136690647653e-01
3.151079136690647653e-01
3.151079136690647653e-01
3.136690647482014427e-01
3.136690647482014427e-01
3.136690647482014427e-01
3.136690647482014427e-01
3.136690647482014427e-01
3.136690647482014427e-01
3.136690647482014427e-01
3.136690647482014427e-01
3.136690647482014427e-01
3.136690647482014427e-01
3.136690647482014427e-01
3.151079136690647653e-01
3.151079136690647653e-01
3.151079136690647653e-01
3.151079136690647653e-01
3.165467625899280324e-01
3.165467625899280324e-01
3.151079136690647653e-01
3.151079136690647653e-01
3.151079136690647653e-01
3.151079136690647653e-01
3.151079136690647653e-01
3.151079136690647653e-01
3.151079136690647653e-01
3.136690647482014427e-01
3.136690647482014427e-01
3.136690647482014427e-01
3.136690647482014427e-01
3.136690647482014427e-01
3.122302158273381201e-01
3.122302158273381201e-01
3.122302158273381201e-01
3.136690647482014427e-01
3.122302158273381201e-01
3.122302158273381201e-01
3.122302158273381201e-01
3.122302158273381201e-01
3.122302158273381201e-01
3.122302158273381201e-01
3.122302158273381201e-01
3.122302158273381201e-01
3.122302158273381201e-01
3.122302158273381201e-01
3.122302158273381201e-01
3.122302158273381201e-01
3.122302158273381201e-01
3.115107913669064588e-01
3.107913669064747975e-01
3.107913669064747975e-01
3.093525179856115304e-01
3.093525179856115304e-01
3.079136690647482077e-01
3.064748201438848851e-01
3.064748201438848851e-01
3.064748201438848851e-01
3.050359712230215625e-01
3.050359712230215625e-01
3.050359712230215625e-01
3.050359712230215625e-01
3.050359712230215625e-01
3.035971223021582954e-01
3.035971223021582954e-01
3.021582733812949728e-01
3.021582733812949728e-01
3.007194244604316502e-01
3.007194244604316502e-01
3.007194244604316502e-01
3.035971223021582954e-01
3.064748201438848851e-01
3.093525179856115304e-01
3.107913669064747975e-01
3.122302158273381201e-01
3.122302158273381201e-01
3.151079136690647653e-01
3.165467625899280324e-01
3.165467625899280324e-01
3.165467625899280324e-01
3.165467625899280324e-01
3.165467625899280324e-01
3.165467625899280324e-01
3.179856115107913550e-01
3.179856115107913550e-01
3.179856115107913550e-01
3.194244604316546776e-01
3.208633093525180002e-01
3.208633093525180002e-01
3.122302158273381201e-01
2.863309352517985351e-01
2.345323741007194207e-01
2.115107913669064810e-01
1.539568345323741039e-01
2.158273381294964141e-02
0.000000000000000000e+00
2.014388489208633060e-01
2.647482014388489180e-01
3.035971223021582954e-01
3.553956834532374098e-01
3.381294964028777050e-01
3.237410071942445899e-01
3.136690647482014427e-01
3.093525179856115304e-01
3.064748201438848851e-01
3.050359712230215625e-01
3.035971223021582954e-01
3.035971223021582954e-01
3.021582733812949728e-01
3.007194244604316502e-01
3.007194244604316502e-01
3.007194244604316502e-01
2.978417266187050605e-01
2.978417266187050605e-01
2.949640287769784153e-01
2.949640287769784153e-01
2.935251798561150927e-01
2.920863309352518256e-01
2.920863309352518256e-01
2.920863309352518256e-01
2.892086330935251803e-01
2.877697841726618577e-01
2.863309352517985351e-01
2.805755395683453002e-01
2.805755395683453002e-01
2.776978417266187105e-01
2.762589928057553879e-01
2.762589928057553879e-01
2.733812949640287981e-01
2.733812949640287981e-01
2.719424460431654755e-01
2.676258992805755632e-01
2.647482014388489180e-01
2.633093525179855954e-01
2.604316546762590057e-01
2.561151079136690378e-01
2.517985611510791255e-01
2.446043165467625957e-01
2.388489208633093608e-01
2.316546762589928032e-01
2.230215827338129508e-01
2.172661870503597159e-01
2.086330935251798635e-01
2.043165467625899234e-01
1.971223021582733936e-01
1.928057553956834536e-01
1.884892086330935135e-01
1.870503597122302186e-01
1.827338129496402785e-01
1.827338129496402785e-01
1.812949640287769837e-01
1.856115107913668960e-01
1.899280575539568361e-01
1.985611510791366885e-01
2.071942446043165409e-01
2.172661870503597159e-01
