5.024509803921568540e-01
5.024509803921568540e-01
5.009708428826076254e-01
4.994907053730582858e-01
4.980105678635090571e-01
4.965304303539597730e-01
4.950502928444104889e-01
4.935701553348612047e-01
4.920900178253119761e-01
4.906098803157626365e-01
4.891297428062134078e-01
4.876496052966641237e-01
4.861694677871148396e-01
4.846893302775655554e-01
4.832091927680163268e-01
4.817290552584669872e-01
4.802489177489177585e-01
4.787687802393684189e-01
4.772886427298191903e-01
4.758085052202699616e-01
4.743283677107206220e-01
4.728482302011713934e-01
4.713680926916221092e-01
4.698879551820728251e-01
4.684078176725235410e-01
4.669276801629743123e-01
4.654475426534249727e-01
4.639674051438757441e-01
4.624872676343264044e-01
4.610071301247771758e-01
4.595269926152278916e-01
4.580468551056786630e-01
4.565667175961293789e-01
4.550865800865800948e-01
4.536064425770307551e-01
4.521263050674815265e-01
4.506461675579322979e-01
4.491660300483829582e-01
4.476858925388337296e-01
4.462057550292844454e-01
4.447256175197351613e-01
4.432454800101858772e-01
4.417653425006366485e-01
4.402852049910873089e-01
4.388050674815380803e-01
4.373249299719887406e-01
4.358447924624395120e-01
4.343646549528902279e-01
4.328845174433409437e-01
4.314043799337917151e-01
4.299242424242424310e-01
4.284441049146930913e-01
4.269639674051438627e-01
4.254838298955946341e-01
4.240036923860452944e-01
4.225235548764960658e-01
4.210434173669467817e-01
4.195632798573974975e-01
4.180831423478482134e-01
4.166030048382989848e-01
4.151228673287496451e-01
4.136427298192004165e-01
4.121625923096511879e-01
4.106824548001018482e-01
4.092023172905525641e-01
4.077221797810032800e-01
4.062420422714540513e-01
4.047619047619047672e-01
4.032817672523554275e-01
4.018016297428061989e-01
4.003214922332569703e-01
3.988413547237076306e-01
3.973612172141584020e-01
3.958810797046091179e-01
3.944009421950598338e-01
3.929208046855105496e-01
3.914406671759613210e-01
3.899605296664119813e-01
3.884803921568627527e-01
5.710784313725489891e-01
5.710784313725489891e-01
5.698529411764705621e-01
5.134803921568626972e-01
5.134803921568626972e-01
5.134803921568626972e-01
5.134803921568626972e-01
5.134803921568626972e-01
5.134803921568626972e-01
5.134803921568626972e-01
5.134803921568626972e-01
5.134803921568626972e-01
5.134803921568626972e-01
5.134803921568626972e-01
5.134803921568626972e-01
5.134803921568626972e-01
5.134803921568626972e-01
5.134803921568626972e-01
5.134803921568626972e-01
5.134803921568626972e-01
5.134803921568626972e-01
5.134803921568626972e-01
5.134803921568626972e-01
5.134803921568626972e-01
5.134803921568626972e-01
5.134803921568626972e-01
5.134803921568626972e-01
5.134803921568626972e-01
5.134803921568626972e-01
5.134803921568626972e-01
5.134803921568626972e-01
5.134803921568626972e-01
5.134803921568626972e-01
5.134803921568626972e-01
5.134803921568626972e-01
5.134803921568626972e-01
5.134803921568626972e-01
5.134803921568626972e-01
5.134803921568626972e-01
5.710784313725489891e-01
5.710784313725489891e-01
5.710784313725489891e-01
6.825980392156862919e-01
2.034313725490196068e-01
2.034313725490196068e-01
4.693627450980392135e-01
9.803921568627450844e-02
4.178921568627451122e-01
4.215686274509803932e-01
4.203431372549019662e-01
4.191176470588235392e-01
7.401960784313725839e-01
7.377450980392157298e-01
7.352941176470588758e-01
7.328431372549019107e-01
7.303921568627450567e-01
4.093137254901960675e-01
4.093137254901960675e-01
8.823529411764706454e-02
8.823529411764706454e-02
4.080882352941176405e-01
1.776960784313725561e-01
1.776960784313725561e-01
1.776960784313725561e-01
8.578431372549019662e-02
4.031862745098039325e-01
7.205882352941176405e-01
7.156862745098039325e-01
3.958333333333333148e-01
7.058823529411765163e-01
7.034313725490196623e-01
7.009803921568626972e-01
6.985294117647058432e-01
3.835784313725490446e-01
3.860294117647058987e-01
7.352941176470588480e-02
7.843137254901960675e-02
3.921568627450980338e-01
7.083333333333333703e-01
3.958333333333333148e-01
7.144607843137255054e-01
3.970588235294117418e-01
7.352941176470588480e-02
7.107843137254901689e-02
3.921568627450980338e-01
3.897058823529411797e-01
6.127450980392156604e-02
6.127450980392156604e-02
3.860294117647058987e-01
3.823529411764705621e-01
7.009803921568626972e-01
3.762254901960784270e-01
3.799019607843137081e-01
6.960784313725489891e-01
6.727941176470588758e-01
6.433823529411765163e-01
5.784313725490196623e-01
5.306372549019607865e-01
4.730392156862744946e-01
4.325980392156862919e-01
4.632352941176470784e-01
5.379901960784313486e-01
6.188725490196078649e-01
6.666666666666666297e-01
7.095588235294117974e-01
5.882352941176470507e-02
7.573529411764705621e-01
7.450980392156862919e-01
7.156862745098039325e-01
7.083333333333333703e-01
7.107843137254902244e-01
7.132352941176470784e-01
6.127450980392156604e-02
3.872549019607843257e-01
6.250000000000000000e-02
5.882352941176470507e-02
5.514705882352941013e-02
5.637254901960784409e-02
3.823529411764705621e-01
3.823529411764705621e-01
6.997549019607842702e-01
3.774509803921568540e-01
6.948529411764705621e-01
3.700980392156862919e-01
3.688725490196078649e-01
6.862745098039215730e-01
3.676470588235294379e-01
3.676470588235294379e-01
6.838235294117647189e-01
6.813725490196078649e-01
6.715686274509803377e-01
6.642156862745097756e-01
3.504901960784313486e-01
3.799019607843136942e-02
6.507352941176470784e-01
6.470588235294117974e-01
6.384803921568626972e-01
3.431372549019608142e-02
6.286764705882352811e-01
6.213235294117647189e-01
6.053921568627450567e-01
3.112745098039215730e-01
5.870098039215686514e-01
2.977941176470588203e-01
2.941176470588235392e-01
2.953431372549019662e-01
5.906862745098039325e-01
5.943627450980392135e-01
6.017156862745097756e-01
6.066176470588234837e-01
6.151960784313725839e-01
6.237745098039215730e-01
6.372549019607842702e-01
6.409313725490196623e-01
6.495098039215686514e-01
6.531862745098039325e-01
6.580882352941176405e-01
3.406862745098039325e-01
2.083333333333333218e-02
2.450980392156862711e-02
2.328431372549019662e-02
1.960784313725490169e-02
3.431372549019607865e-01
6.654411764705882026e-01
6.703431372549019107e-01
6.764705882352941568e-01
3.541666666666666852e-01
3.541666666666666852e-01
3.541666666666666852e-01
3.541666666666666852e-01
6.789215686274510109e-01
6.789215686274510109e-01
3.541666666666666852e-01
6.789215686274510109e-01
6.789215686274510109e-01
6.789215686274510109e-01
6.813725490196078649e-01
3.566176470588235392e-01
3.578431372549019662e-01
6.825980392156862919e-01
3.431372549019608142e-02
3.799019607843136942e-02
4.166666666666666435e-02
6.862745098039215730e-01
6.887254901960784270e-01
6.911764705882352811e-01
6.936274509803921351e-01
6.997549019607842702e-01
7.022058823529411242e-01
7.034313725490196623e-01
7.058823529411765163e-01
7.083333333333333703e-01
7.083333333333333703e-01
7.058823529411765163e-01
3.786764705882352811e-01
3.786764705882352811e-01
3.774509803921568540e-01
7.009803921568626972e-01
5.024509803921568818e-02
5.147058823529411520e-02
3.725490196078431460e-01
3.725490196078431460e-01
3.737745098039215730e-01
6.985294117647058432e-01
7.009803921568626972e-01
7.046568627450980893e-01
7.046568627450980893e-01
6.960784313725489891e-01
6.911764705882352811e-01
4.166666666666666435e-02
3.664215686274509554e-01
3.664215686274509554e-01
3.664215686274509554e-01
6.887254901960784270e-01
6.887254901960784270e-01
3.651960784313725283e-01
3.651960784313725283e-01
6.862745098039215730e-01
6.825980392156862919e-01
6.801470588235294379e-01
4.166666666666666435e-02
3.602941176470588203e-01
4.411764705882353227e-02
3.602941176470588203e-01
6.752450980392157298e-01
3.602941176470588203e-01
3.615196078431372473e-01
3.639705882352941013e-01
3.688725490196078649e-01
6.862745098039215730e-01
6.948529411764705621e-01
6.997549019607842702e-01
7.022058823529411242e-01
7.058823529411765163e-01
7.083333333333333703e-01
7.132352941176470784e-01
7.144607843137255054e-01
7.205882352941176405e-01
7.107843137254901689e-02
3.970588235294117418e-01
7.107843137254901689e-02
7.205882352941176405e-01
7.181372549019607865e-01
3.921568627450980338e-01
6.495098039215686792e-02
7.352941176470588480e-02
7.083333333333333703e-01
6.948529411764705621e-01
6.789215686274510109e-01
6.323529411764705621e-01
5.637254901960784270e-01
5.122549019607842702e-01
4.816176470588235392e-01
4.742647058823529216e-01
5.318627450980392135e-01
6.225490196078431460e-01
6.642156862745097756e-01
7.046568627450980893e-01
7.598039215686273884e-02
1.004901960784313764e-01
7.671568627450980893e-01
7.524509803921568540e-01
7.426470588235294379e-01
7.365196078431373028e-01
7.316176470588234837e-01
4.068627450980392135e-01
4.056372549019607865e-01
4.031862745098039325e-01
8.088235294117647467e-02
7.843137254901960675e-02
7.181372549019607865e-01
7.132352941176470784e-01
7.083333333333333703e-01
7.107843137254901689e-02
6.617647058823529493e-02
6.495098039215686792e-02
7.107843137254901689e-02
8.088235294117647467e-02
7.965686274509803377e-02
8.088235294117647467e-02
3.982843137254901689e-01
7.144607843137255054e-01
7.095588235294117974e-01
7.071078431372549433e-01
7.034313725490196623e-01
6.985294117647058432e-01
6.960784313725489891e-01
6.936274509803921351e-01
6.899509803921568540e-01
6.838235294117647189e-01
6.801470588235294379e-01
6.740196078431373028e-01
7.843137254901960675e-02
3.750000000000000000e-01
6.605392156862744946e-01
8.088235294117647467e-02
3.615196078431372473e-01
6.458333333333333703e-01
3.541666666666666852e-01
6.446078431372549433e-01
6.495098039215686514e-01
6.568627450980392135e-01
6.666666666666666297e-01
6.740196078431373028e-01
6.862745098039215730e-01
6.887254901960784270e-01
6.960784313725489891e-01
7.046568627450980893e-01
7.095588235294117974e-01
7.156862745098039325e-01
7.193627450980392135e-01
4.129901960784313486e-01
4.203431372549019662e-01
7.401960784313725839e-01
7.512254901960784270e-01
7.549019607843137081e-01
4.387254901960784270e-01
1.176470588235294101e-01
7.622549019607842702e-01
8.639705882352941568e-01
7.622549019607842702e-01
9.632352941176470784e-01
9.644607843137255054e-01
9.656862745098039325e-01
7.598039215686274161e-01
7.585784313725489891e-01
8.615196078431373028e-01
9.632352941176470784e-01
7.573529411764705621e-01
9.693627450980392135e-01
9.730392156862744946e-01
9.742647058823529216e-01
7.500000000000000000e-01
7.475490196078431460e-01
1.078431372549019662e-01
1.041666666666666713e-01
4.203431372549019662e-01
9.656862745098039325e-01
9.693627450980392135e-01
9.693627450980392135e-01
9.644607843137255054e-01
7.401960784313725839e-01
7.377450980392157298e-01
7.377450980392157298e-01
7.401960784313725839e-01
7.450980392156862919e-01
9.644607843137255054e-01
9.669117647058823595e-01
9.877450980392157298e-01
9.889705882352941568e-01
9.914215686274510109e-01
7.377450980392157298e-01
4.166666666666666852e-01
9.558823529411764053e-02
4.154411764705882582e-01
9.191176470588235947e-02
9.865196078431373028e-01
9.852941176470588758e-01
9.865196078431373028e-01
7.414215686274510109e-01
7.401960784313725839e-01
7.401960784313725839e-01
7.401960784313725839e-01
7.389705882352941568e-01
7.389705882352941568e-01
7.414215686274510109e-01
7.426470588235294379e-01
9.865196078431373028e-01
9.889705882352941568e-01
9.901960784313725839e-01
7.377450980392157298e-01
7.389705882352941568e-01
7.377450980392157298e-01
7.352941176470588758e-01
7.352941176470588758e-01
7.352941176470588758e-01
7.352941176470588758e-01
7.377450980392157298e-01
9.865196078431373028e-01
9.889705882352941568e-01
9.914215686274510109e-01
4.019607843137255054e-01
7.181372549019607865e-01
4.068627450980392135e-01
7.156862745098039325e-01
7.107843137254902244e-01
9.840686274509803377e-01
9.840686274509803377e-01
9.840686274509803377e-01
7.009803921568626972e-01
3.909313725490196068e-01
7.034313725490196623e-01
7.120098039215686514e-01
7.242647058823529216e-01
7.279411764705882026e-01
4.129901960784313486e-01
7.279411764705882026e-01
9.865196078431373028e-01
9.889705882352941568e-01
9.914215686274510109e-01
7.316176470588234837e-01
7.365196078431373028e-01
7.401960784313725839e-01
7.426470588235294379e-01
7.450980392156862919e-01
7.475490196078431460e-01
7.487745098039215730e-01
9.767156862745097756e-01
9.803921568627450567e-01
7.585784313725489891e-01
7.500000000000000000e-01
7.156862745098039325e-01
6.813725490196078649e-01
6.188725490196078649e-01
5.526960784313725839e-01
4.987745098039215730e-01
4.840686274509803932e-01
5.073529411764705621e-01
5.723039215686274161e-01
6.507352941176470784e-01
6.862745098039215730e-01
7.230392156862744946e-01
8.578431372549019662e-02
7.745098039215686514e-01
7.585784313725489891e-01
7.487745098039215730e-01
7.450980392156862919e-01
9.803921568627450567e-01
7.377450980392157298e-01
7.328431372549019107e-01
7.303921568627450567e-01
7.303921568627450567e-01
9.767156862745097756e-01
9.767156862745097756e-01
8.602941176470588758e-01
9.877450980392157298e-01
9.803921568627450567e-01
8.615196078431373028e-01
3.970588235294117418e-01
7.181372549019607865e-01
3.946078431372548878e-01
7.132352941176470784e-01
7.095588235294117974e-01
7.058823529411765163e-01
6.997549019607842702e-01
3.823529411764705621e-01
6.372549019607842702e-02
3.774509803921568540e-01
6.924019607843137081e-01
6.899509803921568540e-01
3.762254901960784270e-01
6.776960784313725839e-01
6.666666666666666297e-01
6.556372549019607865e-01
6.495098039215686514e-01
6.446078431372549433e-01
6.372549019607842702e-01
6.335784313725489891e-01
3.394607843137255054e-01
3.357843137254901689e-01
6.176470588235294379e-01
4.656862745098039325e-02
6.200980392156862919e-01
3.357843137254901689e-01
6.335784313725489891e-01
6.409313725490196623e-01
6.482843137254902244e-01
6.593137254901960675e-01
6.752450980392157298e-01
6.911764705882352811e-01
7.009803921568626972e-01
7.083333333333333703e-01
7.205882352941176405e-01
7.340686274509803377e-01
7.365196078431373028e-01
7.450980392156862919e-01
7.487745098039215730e-01
4.387254901960784270e-01
4.424019607843137081e-01
1.299019607843137358e-01
1.299019607843137358e-01
4.509803921568627527e-01
7.720588235294117974e-01
7.720588235294117974e-01
7.720588235294117974e-01
7.720588235294117974e-01
4.497549019607843257e-01
4.497549019607843257e-01
7.696078431372549433e-01
4.534313725490196068e-01
4.558823529411764608e-01
7.794117647058823595e-01
4.595588235294117418e-01
4.595588235294117418e-01
1.397058823529411797e-01
4.607843137254901689e-01
7.818627450980392135e-01
7.818627450980392135e-01
1.446078431372549156e-01
1.482843137254901966e-01
4.669117647058823595e-01
7.855392156862744946e-01
7.867647058823529216e-01
7.843137254901960675e-01
4.644607843137255054e-01
4.620098039215686514e-01
1.421568627450980338e-01
1.397058823529411797e-01
4.595588235294117418e-01
4.583333333333333148e-01
1.409313725490196068e-01
1.421568627450980338e-01
1.421568627450980338e-01
4.558823529411764608e-01
1.323529411764705899e-01
4.509803921568627527e-01
1.323529411764705899e-01
7.671568627450980893e-01
1.299019607843137358e-01
4.485294117647058987e-01
4.473039215686274717e-01
7.671568627450980893e-01
4.460784313725490446e-01
4.460784313725490446e-01
1.323529411764705899e-01
1.433823529411764608e-01
7.745098039215686514e-01
7.830882352941176405e-01
7.867647058823529216e-01
7.475490196078431182e-02
7.475490196078431182e-02
7.965686274509803377e-02
8.210784313725490169e-02
7.965686274509803377e-02
7.720588235294117974e-02
1.924019607843137358e-01
1.899509803921568540e-01
1.887254901960784270e-01
1.801470588235294101e-01
1.813725490196078372e-01
1.813725490196078372e-01
1.789215686274509831e-01
1.813725490196078372e-01
1.985294117647058709e-01
1.801470588235294101e-01
1.789215686274509831e-01
1.862745098039215730e-01
1.875000000000000000e-01
1.887254901960784270e-01
1.544117647058823595e-01
4.632352941176470784e-01
7.720588235294117974e-01
1.568627450980392135e-01
1.605392156862745223e-01
1.629901960784313764e-01
1.715686274509803932e-01
1.789215686274509831e-01
1.850490196078431460e-01
1.887254901960784270e-01
1.948529411764705899e-01
1.985294117647058709e-01
2.009803921568627527e-01
1.948529411764705899e-01
1.899509803921568540e-01
1.862745098039215730e-01
1.776960784313725561e-01
1.727941176470588203e-01
1.642156862745098034e-01
1.605392156862745223e-01
1.568627450980392135e-01
1.544117647058823595e-01
4.546568627450980338e-01
1.372549019607843257e-01
1.372549019607843257e-01
1.985294117647058709e-01
1.776960784313725561e-01
1.789215686274509831e-01
1.789215686274509831e-01
1.642156862745098034e-01
1.544117647058823595e-01
1.544117647058823595e-01
1.544117647058823595e-01
1.764705882352941291e-01
7.169117647058823595e-01
6.825980392156862919e-01
6.164215686274510109e-01
5.649509803921568540e-01
5.208333333333333703e-01
5.036764705882352811e-01
5.367647058823529216e-01
5.649509803921568540e-01
6.507352941176470784e-01
6.629901960784313486e-01
4.411764705882352811e-01
8.075980392156862919e-01
7.977941176470588758e-01
7.732843137254902244e-01
7.610294117647058432e-01
1.237745098039215730e-01
4.399509803921568540e-01
1.250000000000000000e-01
1.299019607843137358e-01
7.647058823529411242e-01
4.546568627450980338e-01
7.745098039215686514e-01
7.745098039215686514e-01
1.397058823529411797e-01
1.397058823529411797e-01
4.546568627450980338e-01
4.546568627450980338e-01
1.421568627450980338e-01
4.595588235294117418e-01
7.794117647058823595e-01
7.781862745098039325e-01
7.720588235294117974e-01
4.558823529411764608e-01
7.671568627450980893e-01
7.622549019607842702e-01
7.573529411764705621e-01
7.524509803921568540e-01
7.475490196078431460e-01
7.401960784313725839e-01
7.316176470588234837e-01
7.218137254901960675e-01
7.120098039215686514e-01
7.046568627450980893e-01
6.960784313725489891e-01
6.911764705882352811e-01
6.862745098039215730e-01
6.825980392156862919e-01
3.750000000000000000e-01
3.700980392156862919e-01
6.568627450980392135e-01
6.556372549019607865e-01
6.556372549019607865e-01
6.580882352941176405e-01
6.654411764705882026e-01
6.691176470588234837e-01
6.776960784313725839e-01
6.875000000000000000e-01
6.997549019607842702e-01
7.107843137254902244e-01
7.205882352941176405e-01
7.267156862745097756e-01
7.316176470588234837e-01
7.389705882352941568e-01
7.450980392156862919e-01
7.512254901960784270e-01
4.436274509803921351e-01
4.473039215686274717e-01
4.485294117647058987e-01
7.647058823529411242e-01
7.671568627450980893e-01
4.583333333333333148e-01
4.595588235294117418e-01
7.769607843137255054e-01
1.421568627450980338e-01
4.583333333333333148e-01
7.745098039215686514e-01
7.745098039215686514e-01
1.397058823529411797e-01
4.558823529411764608e-01
7.720588235294117974e-01
4.546568627450980338e-01
1.372549019607843257e-01
4.534313725490196068e-01
4.522058823529411797e-01
4.497549019607843257e-01
1.323529411764705899e-01
4.485294117647058987e-01
7.683823529411765163e-01
1.299019607843137358e-01
1.311274509803921628e-01
1.323529411764705899e-01
4.497549019607843257e-01
1.323529411764705899e-01
1.323529411764705899e-01
1.323529411764705899e-01
1.323529411764705899e-01
7.647058823529411242e-01
1.299019607843137358e-01
4.460784313725490446e-01
7.622549019607842702e-01
4.448529411764705621e-01
4.436274509803921351e-01
1.274509803921568540e-01
1.250000000000000000e-01
1.225490196078431321e-01
4.350490196078431460e-01
1.151960784313725422e-01
1.127450980392156882e-01
1.225490196078431321e-01
1.299019607843137358e-01
1.299019607843137358e-01
7.647058823529411242e-01
1.299019607843137358e-01
4.448529411764705621e-01
4.436274509803921351e-01
4.424019607843137081e-01
4.399509803921568540e-01
4.375000000000000000e-01
4.362745098039215730e-01
4.338235294117647189e-01
4.313725490196078649e-01
4.289215686274509554e-01
1.102941176470588203e-01
4.264705882352941013e-01
4.264705882352941013e-01
4.252450980392156743e-01
7.438725490196078649e-01
4.191176470588235392e-01
1.004901960784313764e-01
9.803921568627450844e-02
7.377450980392157298e-01
7.401960784313725839e-01
8.517156862745097756e-01
8.517156862745097756e-01
7.389705882352941568e-01
7.365196078431373028e-01
9.754901960784313486e-01
9.718137254901960675e-01
9.669117647058823595e-01
3.933823529411764608e-01
7.009803921568626972e-01
6.973039215686274161e-01
6.948529411764705621e-01
6.850490196078431460e-01
6.715686274509803377e-01
6.703431372549019107e-01
6.642156862745097756e-01
9.828431372549019107e-01
9.803921568627450567e-01
9.803921568627450567e-01
9.791666666666666297e-01
6.776960784313725839e-01
6.813725490196078649e-01
8.259803921568626972e-01
6.875000000000000000e-01
6.911764705882352811e-01
6.973039215686274161e-01
7.022058823529411242e-01
8.370098039215686514e-01
9.742647058823529216e-01
9.816176470588234837e-01
9.803921568627450567e-01
7.193627450980392135e-01
8.088235294117647467e-02
7.181372549019607865e-01
7.181372549019607865e-01
7.205882352941176405e-01
8.566176470588234837e-01
9.779411764705882026e-01
7.132352941176470784e-01
6.764705882352941568e-01
6.066176470588234837e-01
5.649509803921568540e-01
5.159313725490196623e-01
4.742647058823529216e-01
4.938725490196078649e-01
5.600490196078431460e-01
6.139705882352941568e-01
6.703431372549019107e-01
7.120098039215686514e-01
1.188725490196078372e-01
7.720588235294117974e-01
7.524509803921568540e-01
7.377450980392157298e-01
7.303921568627450567e-01
7.181372549019607865e-01
7.156862745098039325e-01
7.120098039215686514e-01
7.095588235294117974e-01
9.852941176470588758e-01
9.865196078431373028e-01
9.877450980392157298e-01
3.762254901960784270e-01
3.750000000000000000e-01
3.713235294117647189e-01
3.688725490196078649e-01
3.664215686274509554e-01
9.840686274509803377e-01
9.803921568627450567e-01
9.840686274509803377e-01
6.752450980392157298e-01
6.678921568627450567e-01
6.642156862745097756e-01
6.617647058823529216e-01
6.629901960784313486e-01
9.767156862745097756e-01
6.531862745098039325e-01
6.519607843137255054e-01
9.852941176470588758e-01
9.852941176470588758e-01
9.828431372549019107e-01
6.262254901960784270e-01
6.237745098039215730e-01
6.188725490196078649e-01
6.176470588235294379e-01
6.115196078431373028e-01
6.066176470588234837e-01
5.992647058823529216e-01
6.004901960784313486e-01
9.901960784313725839e-01
9.901960784313725839e-01
9.938725490196078649e-01
5.992647058823529216e-01
6.029411764705882026e-01
3.112745098039215730e-01
6.213235294117647189e-01
6.384803921568626972e-01
6.531862745098039325e-01
6.642156862745097756e-01
6.703431372549019107e-01
6.752450980392157298e-01
6.825980392156862919e-01
6.850490196078431460e-01
6.850490196078431460e-01
3.676470588235294379e-01
6.838235294117647189e-01
3.688725490196078649e-01
9.877450980392157298e-01
9.865196078431373028e-01
9.865196078431373028e-01
8.357843137254902244e-01
6.911764705882352811e-01
6.924019607843137081e-01
6.948529411764705621e-01
6.948529411764705621e-01
8.357843137254902244e-01
6.973039215686274161e-01
9.754901960784313486e-01
9.877450980392157298e-01
9.901960784313725839e-01
9.901960784313725839e-01
6.372549019607842702e-02
6.997549019607842702e-01
7.022058823529411242e-01
7.022058823529411242e-01
7.022058823529411242e-01
7.034313725490196623e-01
7.034313725490196623e-01
9.865196078431373028e-01
9.877450980392157298e-01
9.889705882352941568e-01
3.786764705882352811e-01
6.127450980392156604e-02
5.882352941176470507e-02
6.936274509803921351e-01
6.960784313725489891e-01
9.632352941176470784e-01
6.948529411764705621e-01
6.936274509803921351e-01
9.791666666666666297e-01
9.840686274509803377e-01
6.825980392156862919e-01
6.801470588235294379e-01
6.764705882352941568e-01
6.752450980392157298e-01
1.000000000000000000e+00
9.950980392156862919e-01
9.901960784313725839e-01
9.828431372549019107e-01
9.754901960784313486e-01
9.705882352941176405e-01
9.656862745098039325e-01
9.632352941176470784e-01
6.740196078431373028e-01
3.529411764705882582e-01
3.529411764705882582e-01
3.529411764705882582e-01
3.529411764705882582e-01
3.529411764705882582e-01
3.431372549019608142e-02
3.517156862745098311e-01
6.666666666666666297e-01
6.617647058823529216e-01
3.455882352941176405e-01
2.696078431372549156e-02
3.431372549019607865e-01
6.617647058823529216e-01
6.617647058823529216e-01
6.617647058823529216e-01
6.568627450980392135e-01
6.495098039215686514e-01
3.345588235294117418e-01
3.333333333333333148e-01
3.345588235294117418e-01
6.446078431372549433e-01
6.323529411764705621e-01
6.250000000000000000e-01
6.225490196078431460e-01
6.237745098039215730e-01
6.250000000000000000e-01
3.149509803921568540e-01
6.127450980392156778e-03
9.803921568627450844e-03
9.803921568627450844e-03
6.372549019607842702e-01
3.247549019607843257e-01
9.803921568627450844e-03
7.352941176470588133e-03
3.247549019607843257e-01
6.421568627450980893e-01
3.259803921568627527e-01
9.803921568627450844e-03
3.272058823529411797e-01
3.272058823529411797e-01
3.272058823529411797e-01
3.272058823529411797e-01
3.284313725490196068e-01
3.296568627450980338e-01
1.470588235294117627e-02
6.335784313725489891e-01
6.127450980392157298e-01
5.968137254901960675e-01
5.563725490196078649e-01
5.085784313725489891e-01
4.424019607843137081e-01
3.872549019607843257e-01
4.068627450980392135e-01
4.656862745098039325e-01
5.490196078431373028e-01
6.053921568627450567e-01
6.372549019607842702e-01
1.225490196078431356e-02
2.083333333333333218e-02
6.593137254901960675e-01
6.397058823529411242e-01
6.335784313725489891e-01
6.323529411764705621e-01
6.311274509803921351e-01
6.286764705882352811e-01
6.286764705882352811e-01
6.286764705882352811e-01
6.286764705882352811e-01
6.286764705882352811e-01
6.286764705882352811e-01
6.286764705882352811e-01
6.299019607843137081e-01
6.286764705882352811e-01
6.286764705882352811e-01
6.286764705882352811e-01
6.262254901960784270e-01
6.250000000000000000e-01
6.225490196078431460e-01
6.200980392156862919e-01
6.188725490196078649e-01
6.127450980392157298e-01
6.090686274509803377e-01
6.029411764705882026e-01
5.955882352941176405e-01
5.894607843137255054e-01
5.808823529411765163e-01
5.735294117647058432e-01
5.637254901960784270e-01
5.526960784313725839e-01
5.453431372549019107e-01
5.294117647058823595e-01
5.220588235294117974e-01
5.122549019607842702e-01
5.036764705882352811e-01
4.963235294117647189e-01
4.889705882352941013e-01
4.840686274509803932e-01
4.828431372549019662e-01
4.852941176470588203e-01
4.889705882352941013e-01
4.926470588235294379e-01
4.975490196078431460e-01
5.036764705882352811e-01
5.085784313725489891e-01
5.159313725490196623e-01
5.220588235294117974e-01
5.306372549019607865e-01
5.428921568627450567e-01
5.477941176470588758e-01
5.588235294117647189e-01
5.649509803921568540e-01
5.735294117647058432e-01
5.796568627450980893e-01
5.857843137254902244e-01
5.931372549019607865e-01
5.968137254901960675e-01
6.004901960784313486e-01
6.004901960784313486e-01
5.998774509803921351e-01
5.992647058823529216e-01
5.992647058823529216e-01
5.992647058823529216e-01
5.992647058823529216e-01
5.992647058823529216e-01
5.980392156862744946e-01
5.968137254901960675e-01
5.968137254901960675e-01
5.968137254901960675e-01
5.980392156862744946e-01
5.980392156862744946e-01
5.980392156862744946e-01
5.992647058823529216e-01
5.992647058823529216e-01
6.004901960784313486e-01
6.004901960784313486e-01
6.004901960784313486e-01
6.004901960784313486e-01
6.017156862745097756e-01
6.017156862745097756e-01
6.017156862745097756e-01
5.992647058823529216e-01
5.968137254901960675e-01
5.955882352941176405e-01
5.968137254901960675e-01
5.980392156862744946e-01
5.980392156862744946e-01
5.992647058823529216e-01
6.004901960784313486e-01
6.004901960784313486e-01
6.017156862745097756e-01
6.029411764705882026e-01
6.053921568627450567e-01
6.053921568627450567e-01
6.078431372549019107e-01
7.475490196078431182e-02
7.475490196078431182e-02
7.598039215686273884e-02
7.352941176470588480e-02
7.475490196078431182e-02
7.720588235294117974e-02
1.617647058823529493e-01
1.629901960784313764e-01
1.691176470588235392e-01
1.740196078431372473e-01
1.813725490196078372e-01
1.887254901960784270e-01
1.985294117647058709e-01
1.997549019607843257e-01
1.997549019607843257e-01
1.973039215686274439e-01
1.973039215686274439e-01
1.911764705882352811e-01
1.813725490196078372e-01
1.740196078431372473e-01
1.654411764705882304e-01
1.617647058823529493e-01
1.617647058823529493e-01
6.102941176470588758e-01
6.213235294117647189e-01
6.286764705882352811e-01
2.009803921568627527e-01
1.764705882352941291e-01
1.568627450980392135e-01
1.568627450980392135e-01
1.727941176470588203e-01
1.727941176470588203e-01
1.752450980392156743e-01
1.875000000000000000e-01
1.752450980392156743e-01
1.764705882352941291e-01
1.776960784313725561e-01
1.727941176470588203e-01
1.801470588235294101e-01
1.617647058823529493e-01
1.090686274509803932e-01
7.720588235294117974e-02
7.352941176470588480e-02
5.992647058823529216e-01
5.428921568627450567e-01
4.963235294117647189e-01
4.056372549019607865e-01
1.213235294117647051e-01
2.218137254901960675e-01
3.725490196078431460e-01
4.632352941176470784e-01
5.968137254901960675e-01
5.563725490196078649e-01
4.460784313725490446e-01
3.602941176470588203e-01
2.867647058823529216e-01
2.291666666666666574e-01
1.764705882352941291e-01
1.372549019607843257e-01
6.482843137254902244e-01
6.470588235294117974e-01
1.200980392156862780e-01
1.151960784313725422e-01
3.786764705882352811e-01
1.102941176470588203e-01
3.737745098039215730e-01
6.372549019607842702e-01
1.004901960784313764e-01
9.681372549019608142e-02
9.313725490196078649e-02
3.627450980392156743e-01
6.274509803921568540e-01
6.213235294117647189e-01
6.151960784313725839e-01
3.443627450980392135e-01
7.230392156862745778e-02
6.740196078431372195e-02
5.882352941176470507e-02
4.901960784313725422e-02
4.289215686274509831e-02
2.818627450980392204e-02
1.715686274509804071e-02
0.000000000000000000e+00
5.674019607843137081e-01
5.637254901960784270e-01
5.563725490196078649e-01
5.477941176470588758e-01
5.404411764705882026e-01
5.269607843137255054e-01
5.220588235294117974e-01
5.134803921568626972e-01
5.073529411764705621e-01
5.012254901960784270e-01
5.012254901960784270e-01
5.049019607843137081e-01
5.110294117647058432e-01
1.225490196078431356e-02
2.573529411764705760e-02
3.799019607843136942e-02
5.514705882352941013e-02
6.985294117647058987e-02
8.333333333333332871e-02
9.191176470588235947e-02
1.053921568627450983e-01
3.443627450980392135e-01
5.808823529411765163e-01
5.857843137254902244e-01
1.286764705882352811e-01
1.323529411764705899e-01
1.360294117647058709e-01
1.372549019607843257e-01
3.725490196078431460e-01
6.102941176470588758e-01
3.725490196078431460e-01
3.725490196078431460e-01
6.102941176470588758e-01
6.102941176470588758e-01
6.139705882352941568e-01
6.176470588235294379e-01
6.225490196078431460e-01
3.823529411764705621e-01
6.360294117647058432e-01
6.348039215686274161e-01
6.397058823529411242e-01
6.421568627450980893e-01
6.446078431372549433e-01
3.872549019607843257e-01
3.872549019607843257e-01
6.470588235294117974e-01
3.884803921568627527e-01
3.884803921568627527e-01
1.299019607843137358e-01
3.897058823529411797e-01
3.897058823529411797e-01
3.897058823529411797e-01
3.897058823529411797e-01
1.299019607843137358e-01
1.323529411764705899e-01
3.921568627450980338e-01
3.933823529411764608e-01
3.933823529411764608e-01
1.372549019607843257e-01
3.933823529411764608e-01
6.458333333333333703e-01
3.921568627450980338e-01
3.921568627450980338e-01
3.921568627450980338e-01
3.921568627450980338e-01
3.921568627450980338e-01
3.921568627450980338e-01
3.921568627450980338e-01
3.933823529411764608e-01
3.933823529411764608e-01
3.933823529411764608e-01
6.372549019607842702e-01
6.372549019607842702e-01
6.397058823529411242e-01
3.921568627450980338e-01
3.921568627450980338e-01
3.921568627450980338e-01
6.384803921568626972e-01
6.397058823529411242e-01
6.348039215686274161e-01
3.884803921568627527e-01
3.884803921568627527e-01
3.884803921568627527e-01
1.421568627450980338e-01
1.421568627450980338e-01
3.872549019607843257e-01
3.860294117647058987e-01
6.299019607843137081e-01
6.274509803921568540e-01
6.200980392156862919e-01
6.164215686274510109e-01
6.139705882352941568e-01
3.725490196078431460e-01
3.725490196078431460e-01
1.323529411764705899e-01
1.335784313725490169e-01
1.397058823529411797e-01
1.446078431372549156e-01
1.446078431372549156e-01
6.200980392156862919e-01
6.237745098039215730e-01
6.335784313725489891e-01
6.372549019607842702e-01
6.446078431372549433e-01
6.458333333333333703e-01
6.446078431372549433e-01
3.946078431372548878e-01
6.421568627450980893e-01
6.421568627450980893e-01
6.421568627450980893e-01
3.946078431372548878e-01
1.286764705882352811e-01
9.436274509803921351e-02
7.107843137254901689e-02
5.637254901960784409e-02
5.870098039215686514e-01
5.477941176470588758e-01
4.926470588235294379e-01
3.872549019607843257e-01
1.348039215686274439e-01
2.426470588235294101e-01
3.860294117647058987e-01
4.852941176470588203e-01
6.017156862745097756e-01
5.404411764705882026e-01
4.227941176470588203e-01
3.443627450980392135e-01
2.781862745098039325e-01
2.120098039215686236e-01
1.580882352941176405e-01
1.335784313725490169e-01
1.225490196078431321e-01
1.176470588235294101e-01
1.139705882352941152e-01
1.090686274509803932e-01
1.053921568627450983e-01
1.017156862745098034e-01
9.681372549019608142e-02
9.436274509803921351e-02
9.068627450980391858e-02
8.700980392156862364e-02
8.333333333333332871e-02
7.843137254901960675e-02
7.352941176470588480e-02
6.985294117647058987e-02
6.617647058823529493e-02
6.446078431372549433e-01
6.397058823529411242e-01
4.166666666666666435e-02
3.431372549019608142e-02
2.328431372549019662e-02
1.102941176470588307e-02
3.149509803921568540e-01
6.237745098039215730e-01
6.188725490196078649e-01
6.115196078431373028e-01
6.029411764705882026e-01
5.968137254901960675e-01
5.919117647058823595e-01
5.808823529411765163e-01
5.759803921568626972e-01
5.710784313725489891e-01
5.674019607843137081e-01
5.674019607843137081e-01
5.710784313725489891e-01
5.747549019607842702e-01
5.821078431372549433e-01
5.906862745098039325e-01
6.004901960784313486e-01
6.053921568627450567e-01
6.090686274509803377e-01
2.941176470588235253e-02
4.166666666666666435e-02
5.024509803921568818e-02
6.372549019607842702e-02
7.352941176470588480e-02
3.737745098039215730e-01
9.068627450980391858e-02
9.313725490196078649e-02
3.897058823529411797e-01
1.017156862745098034e-01
3.946078431372548878e-01
3.958333333333333148e-01
1.053921568627450983e-01
3.970588235294117418e-01
3.970588235294117418e-01
3.970588235294117418e-01
3.970588235294117418e-01
3.970588235294117418e-01
3.970588235294117418e-01
3.970588235294117418e-01
6.936274509803921351e-01
6.997549019607842702e-01
7.034313725490196623e-01
7.058823529411765163e-01
4.044117647058823595e-01
4.044117647058823595e-01
4.044117647058823595e-01
7.083333333333333703e-01
7.107843137254902244e-01
7.132352941176470784e-01
7.120098039215686514e-01
7.083333333333333703e-01
7.009803921568626972e-01
6.973039215686274161e-01
4.019607843137255054e-01
6.960784313725489891e-01
4.044117647058823595e-01
4.044117647058823595e-01
6.936274509803921351e-01
4.031862745098039325e-01
4.044117647058823595e-01
4.056372549019607865e-01
6.936274509803921351e-01
6.936274509803921351e-01
4.068627450980392135e-01
6.960784313725489891e-01
6.985294117647058432e-01
6.997549019607842702e-01
7.046568627450980893e-01
4.129901960784313486e-01
4.129901960784313486e-01
4.129901960784313486e-01
4.129901960784313486e-01
7.107843137254902244e-01
4.142156862745098311e-01
7.058823529411765163e-01
7.022058823529411242e-01
4.105392156862744946e-01
4.105392156862744946e-01
7.034313725490196623e-01
7.046568627450980893e-01
7.095588235294117974e-01
7.144607843137255054e-01
4.166666666666666852e-01
4.154411764705882582e-01
7.156862745098039325e-01
4.142156862745098311e-01
4.129901960784313486e-01
1.127450980392156882e-01
7.107843137254902244e-01
7.107843137254902244e-01
7.058823529411765163e-01
7.022058823529411242e-01
6.924019607843137081e-01
6.813725490196078649e-01
6.740196078431373028e-01
6.654411764705882026e-01
6.605392156862744946e-01
6.593137254901960675e-01
1.139705882352941152e-01
1.164215686274509831e-01
1.200980392156862780e-01
1.262254901960784270e-01
3.946078431372548878e-01
3.958333333333333148e-01
3.970588235294117418e-01
3.970588235294117418e-01
1.311274509803921628e-01
1.323529411764705899e-01
1.348039215686274439e-01
6.666666666666666297e-01
1.397058823529411797e-01
1.384803921568627527e-01
1.372549019607843257e-01
1.335784313725490169e-01
1.311274509803921628e-01
1.102941176470588203e-01
7.720588235294117974e-02
6.495098039215686792e-02
4.779411764705882026e-02
6.066176470588234837e-01
5.514705882352941568e-01
4.975490196078431460e-01
3.860294117647058987e-01
9.436274509803921351e-02
2.634803921568627527e-01
3.958333333333333148e-01
5.049019607843137081e-01
6.115196078431373028e-01
5.183823529411765163e-01
4.007352941176470784e-01
3.186274509803921351e-01
2.610294117647058987e-01
1.948529411764705899e-01
1.421568627450980338e-01
1.200980392156862780e-01
1.102941176470588203e-01
1.066176470588235253e-01
6.776960784313725839e-01
6.813725490196078649e-01
8.578431372549019662e-02
8.210784313725490169e-02
6.924019607843137081e-01
6.960784313725489891e-01
6.985294117647058987e-02
6.372549019607842702e-02
3.835784313725490446e-01
6.997549019607842702e-01
6.936274509803921351e-01
5.024509803921568818e-02
4.289215686274509831e-02
3.553921568627450844e-02
2.328431372549019662e-02
1.470588235294117627e-02
7.352941176470588133e-03
3.480392156862744946e-01
6.936274509803921351e-01
6.862745098039215730e-01
6.838235294117647189e-01
6.825980392156862919e-01
6.838235294117647189e-01
6.801470588235294379e-01
6.715686274509803377e-01
6.629901960784313486e-01
6.593137254901960675e-01
6.519607843137255054e-01
6.519607843137255054e-01
6.495098039215686514e-01
6.458333333333333703e-01
6.409313725490196623e-01
6.397058823529411242e-01
6.433823529411765163e-01
6.482843137254902244e-01
6.556372549019607865e-01
6.629901960784313486e-01
6.691176470588234837e-01
6.727941176470588758e-01
2.573529411764705760e-02
3.431372549019608142e-02
4.411764705882353227e-02
5.637254901960784409e-02
6.372549019607842702e-02
7.230392156862745778e-02
7.843137254901960675e-02
8.455882352941176960e-02
8.946078431372549156e-02
4.007352941176470784e-01
9.313725490196078649e-02
9.558823529411764053e-02
4.031862745098039325e-01
4.031862745098039325e-01
4.031862745098039325e-01
9.558823529411764053e-02
7.083333333333333703e-01
7.120098039215686514e-01
7.169117647058823595e-01
7.230392156862744946e-01
4.105392156862744946e-01
9.068627450980391858e-02
9.068627450980391858e-02
9.068627450980391858e-02
9.068627450980391858e-02
4.117647058823529216e-01
9.068627450980391858e-02
4.105392156862744946e-01
4.105392156862744946e-01
7.328431372549019107e-01
7.328431372549019107e-01
7.328431372549019107e-01
4.117647058823529216e-01
4.117647058823529216e-01
4.105392156862744946e-01
4.117647058823529216e-01
4.129901960784313486e-01
4.129901960784313486e-01
4.142156862745098311e-01
7.267156862745097756e-01
7.303921568627450567e-01
4.178921568627451122e-01
4.178921568627451122e-01
7.328431372549019107e-01
4.191176470588235392e-01
1.053921568627450983e-01
1.078431372549019662e-01
1.078431372549019662e-01
4.191176470588235392e-01
4.191176470588235392e-01
1.102941176470588203e-01
4.191176470588235392e-01
7.230392156862744946e-01
7.193627450980392135e-01
7.156862745098039325e-01
4.142156862745098311e-01
7.107843137254902244e-01
4.129901960784313486e-01
7.083333333333333703e-01
7.095588235294117974e-01
7.107843137254902244e-01
4.142156862745098311e-01
4.142156862745098311e-01
1.200980392156862780e-01
4.142156862745098311e-01
4.142156862745098311e-01
7.058823529411765163e-01
4.129901960784313486e-01
7.034313725490196623e-01
1.200980392156862780e-01
4.105392156862744946e-01
6.985294117647058432e-01
6.936274509803921351e-01
6.899509803921568540e-01
6.862745098039215730e-01
4.007352941176470784e-01
4.007352941176470784e-01
6.813725490196078649e-01
6.764705882352941568e-01
6.740196078431373028e-01
6.666666666666666297e-01
7.475490196078431182e-02
7.720588235294117974e-02
7.598039215686273884e-02
7.475490196078431182e-02
7.230392156862745778e-02
7.720588235294117974e-02
1.568627450980392135e-01
1.629901960784313764e-01
1.764705882352941291e-01
1.825980392156862642e-01
1.801470588235294101e-01
1.862745098039215730e-01
1.936274509803921628e-01
1.973039215686274439e-01
2.009803921568627527e-01
2.009803921568627527e-01
1.948529411764705899e-01
1.862745098039215730e-01
1.801470588235294101e-01
1.727941176470588203e-01
1.629901960784313764e-01
1.605392156862745223e-01
1.605392156862745223e-01
1.151960784313725422e-01
3.419117647058823595e-01
5.490196078431373028e-01
5.024509803921568540e-01
4.411764705882352811e-01
4.142156862745098311e-01
4.730392156862744946e-01
5.110294117647058432e-01
5.661764705882352811e-01
1.997549019607843257e-01
7.426470588235294379e-01
1.813725490196078372e-01
1.862745098039215730e-01
1.568627450980392135e-01
1.519607843137254777e-01
1.764705882352941291e-01
1.825980392156862642e-01
1.850490196078431460e-01
4.142156862745098311e-01
4.142156862745098311e-01
9.558823529411764053e-02
9.558823529411764053e-02
7.303921568627450567e-01
7.328431372549019107e-01
7.328431372549019107e-01
4.093137254901960675e-01
4.056372549019607865e-01
7.267156862745097756e-01
7.279411764705882026e-01
7.279411764705882026e-01
7.218137254901960675e-01
7.169117647058823595e-01
7.132352941176470784e-01
3.933823529411764608e-01
7.843137254901960675e-02
7.230392156862745778e-02
6.862745098039216285e-02
6.372549019607842702e-02
6.127450980392156604e-02
4.901960784313725422e-02
3.688725490196078649e-01
6.764705882352941568e-01
6.715686274509803377e-01
2.696078431372549156e-02
3.370098039215686514e-01
6.397058823529411242e-01
6.397058823529411242e-01
6.299019607843137081e-01
6.225490196078431460e-01
6.188725490196078649e-01
6.139705882352941568e-01
6.102941176470588758e-01
6.090686274509803377e-01
2.450980392156862711e-03
1.225490196078431356e-02
6.176470588235294379e-01
6.250000000000000000e-01
3.921568627450980338e-02
4.411764705882353227e-02
5.882352941176470507e-02
3.627450980392156743e-01
6.862745098039216285e-02
7.352941176470588480e-02
3.799019607843137081e-01
6.801470588235294379e-01
6.887254901960784270e-01
6.948529411764705621e-01
6.985294117647058432e-01
3.946078431372548878e-01
3.946078431372548878e-01
9.068627450980391858e-02
9.068627450980391858e-02
7.009803921568626972e-01
7.009803921568626972e-01
7.009803921568626972e-01
9.068627450980391858e-02
9.068627450980391858e-02
3.970588235294117418e-01
3.970588235294117418e-01
3.982843137254901689e-01
3.970588235294117418e-01
3.970588235294117418e-01
7.058823529411765163e-01
7.058823529411765163e-01
8.823529411764706454e-02
7.083333333333333703e-01
7.107843137254902244e-01
4.019607843137255054e-01
8.823529411764706454e-02
8.823529411764706454e-02
7.193627450980392135e-01
7.205882352941176405e-01
7.205882352941176405e-01
4.044117647058823595e-01
4.044117647058823595e-01
7.205882352941176405e-01
4.056372549019607865e-01
4.056372549019607865e-01
8.823529411764706454e-02
8.823529411764706454e-02
8.823529411764706454e-02
7.254901960784313486e-01
7.254901960784313486e-01
4.080882352941176405e-01
8.578431372549019662e-02
8.578431372549019662e-02
7.303921568627450567e-01
7.328431372549019107e-01
7.389705882352941568e-01
7.401960784313725839e-01
7.426470588235294379e-01
7.438725490196078649e-01
7.487745098039215730e-01
7.549019607843137081e-01
7.598039215686274161e-01
7.622549019607842702e-01
7.843137254901960675e-02
7.843137254901960675e-02
7.659313725490196623e-01
4.203431372549019662e-01
7.622549019607842702e-01
4.191176470588235392e-01
4.178921568627451122e-01
7.598039215686273884e-02
7.352941176470588480e-02
4.154411764705882582e-01
7.610294117647058432e-01
4.154411764705882582e-01
4.142156862745098311e-01
6.004901960784313902e-02
4.105392156862744946e-01
4.093137254901960675e-01
7.585784313725489891e-01
7.573529411764705621e-01
7.610294117647058432e-01
7.647058823529411242e-01
7.708333333333333703e-01
7.720588235294117974e-01
5.882352941176470507e-02
7.794117647058823595e-01
7.830882352941176405e-01
7.867647058823529216e-01
6.372549019607842702e-02
4.276960784313725283e-01
4.289215686274509554e-01
7.916666666666666297e-01
4.301470588235294379e-01
4.301470588235294379e-01
7.916666666666666297e-01
7.107843137254901689e-02
4.313725490196078649e-01
7.598039215686273884e-02
8.210784313725490169e-02
7.769607843137255054e-01
7.450980392156862919e-01
6.948529411764705621e-01
6.580882352941176405e-01
6.237745098039215730e-01
5.612745098039215730e-01
5.208333333333333703e-01
5.477941176470588758e-01
5.833333333333333703e-01
6.250000000000000000e-01
1.605392156862745223e-01
7.732843137254902244e-01
1.642156862745098034e-01
1.531862745098039325e-01
7.818627450980392135e-01
7.745098039215686514e-01
7.696078431372549433e-01
9.191176470588235947e-02
8.946078431372549156e-02
8.578431372549019662e-02
4.252450980392156743e-01
7.671568627450980893e-01
7.659313725490196623e-01
7.610294117647058432e-01
7.598039215686274161e-01
7.598039215686273884e-02
4.166666666666666852e-01
7.610294117647058432e-01
7.634803921568626972e-01
7.598039215686274161e-01
7.585784313725489891e-01
6.740196078431372195e-02
6.617647058823529493e-02
6.372549019607842702e-02
4.093137254901960675e-01
5.392156862745098311e-02
4.044117647058823595e-01
4.007352941176470784e-01
4.779411764705882026e-02
4.166666666666666435e-02
3.921568627450980338e-02
3.835784313725490446e-01
7.230392156862744946e-01
7.144607843137255054e-01
3.602941176470588203e-01
6.997549019607842702e-01
6.936274509803921351e-01
6.911764705882352811e-01
6.838235294117647189e-01
6.801470588235294379e-01
6.764705882352941568e-01
6.691176470588234837e-01
6.666666666666666297e-01
6.666666666666666297e-01
6.666666666666666297e-01
6.740196078431373028e-01
6.776960784313725839e-01
6.801470588235294379e-01
1.715686274509804071e-02
3.602941176470588203e-01
3.700980392156862919e-01
4.289215686274509831e-02
4.656862745098039325e-02
7.291666666666666297e-01
7.377450980392157298e-01
7.463235294117647189e-01
4.056372549019607865e-01
7.549019607843137081e-01
7.573529411764705621e-01
7.598039215686274161e-01
4.117647058823529216e-01
7.561274509803921351e-01
7.524509803921568540e-01
7.512254901960784270e-01
7.450980392156862919e-01
4.068627450980392135e-01
4.068627450980392135e-01
7.107843137254901689e-02
4.080882352941176405e-01
4.080882352941176405e-01
4.080882352941176405e-01
4.080882352941176405e-01
4.080882352941176405e-01
7.230392156862745778e-02
7.463235294117647189e-01
7.463235294117647189e-01
4.105392156862744946e-01
7.426470588235294379e-01
4.080882352941176405e-01
7.438725490196078649e-01
7.500000000000000000e-01
7.598039215686274161e-01
7.720588235294117974e-01
7.781862745098039325e-01
7.806372549019607865e-01
7.855392156862744946e-01
5.882352941176470507e-02
4.240196078431372473e-01
7.892156862745097756e-01
7.892156862745097756e-01
4.227941176470588203e-01
4.227941176470588203e-01
7.916666666666666297e-01
7.977941176470588758e-01
8.039215686274510109e-01
8.112745098039215730e-01
8.137254901960784270e-01
4.338235294117647189e-01
4.338235294117647189e-01
4.338235294117647189e-01
4.338235294117647189e-01
4.350490196078431460e-01
5.392156862745098311e-02
5.392156862745098311e-02
4.350490196078431460e-01
4.350490196078431460e-01
5.392156862745098311e-02
4.338235294117647189e-01
8.137254901960784270e-01
4.338235294117647189e-01
8.161764705882352811e-01
4.325980392156862919e-01
8.161764705882352811e-01
4.301470588235294379e-01
4.411764705882353227e-02
4.264705882352941013e-01
8.039215686274510109e-01
7.977941176470588758e-01
4.166666666666666852e-01
8.002450980392157298e-01
8.075980392156862919e-01
8.112745098039215730e-01
8.198529411764705621e-01
8.210784313725489891e-01
4.301470588235294379e-01
8.161764705882352811e-01
8.186274509803921351e-01
8.210784313725489891e-01
4.387254901960784270e-01
4.399509803921568540e-01
8.333333333333333703e-01
8.382352941176470784e-01
8.431372549019607865e-01
8.480392156862744946e-01
4.497549019607843257e-01
4.509803921568627527e-01
8.504901960784313486e-01
4.522058823529411797e-01
4.546568627450980338e-01
4.571078431372548878e-01
6.372549019607842702e-02
4.227941176470588203e-01
7.500000000000000000e-01
7.193627450980392135e-01
6.531862745098039325e-01
6.041666666666666297e-01
6.188725490196078649e-01
6.752450980392157298e-01
7.095588235294117974e-01
7.561274509803921351e-01
8.492647058823529216e-01
9.019607843137255054e-01
9.142156862745097756e-01
1.139705882352941152e-01
9.436274509803921351e-02
6.862745098039216285e-02
4.901960784313725422e-02
8.700980392156862919e-01
8.676470588235294379e-01
4.558823529411764608e-01
4.558823529411764608e-01
4.166666666666666435e-02
4.044117647058823733e-02
4.509803921568627527e-01
8.651960784313725839e-01
3.431372549019608142e-02
4.485294117647058987e-01
4.473039215686274717e-01
4.460784313725490446e-01
4.460784313725490446e-01
8.627450980392157298e-01
8.602941176470588758e-01
8.553921568627450567e-01
8.529411764705882026e-01
4.350490196078431460e-01
1.838235294117647120e-02
1.348039215686274578e-02
7.352941176470588133e-03
4.215686274509803932e-01
8.370098039215686514e-01
8.321078431372549433e-01
8.296568627450980893e-01
8.235294117647058432e-01
8.100490196078431460e-01
8.014705882352941568e-01
7.953431372549019107e-01
7.867647058823529216e-01
7.867647058823529216e-01
7.879901960784313486e-01
7.892156862745097756e-01
7.916666666666666297e-01
7.916666666666666297e-01
7.928921568627450567e-01
7.953431372549019107e-01
8.002450980392157298e-01
8.051470588235294379e-01
8.137254901960784270e-01
8.210784313725489891e-01
8.345588235294117974e-01
8.382352941176470784e-01
8.419117647058823595e-01
2.450980392156862711e-03
6.127450980392156778e-03
1.102941176470588307e-02
1.593137254901960675e-02
1.838235294117647120e-02
8.480392156862744946e-01
8.517156862745097756e-01
8.529411764705882026e-01
8.504901960784313486e-01
8.455882352941176405e-01
4.362745098039215730e-01
8.455882352941176405e-01
4.375000000000000000e-01
4.375000000000000000e-01
4.375000000000000000e-01
4.375000000000000000e-01
4.375000000000000000e-01
4.387254901960784270e-01
8.480392156862744946e-01
8.504901960784313486e-01
8.553921568627450567e-01
8.578431372549019107e-01
8.578431372549019107e-01
4.448529411764705621e-01
4.448529411764705621e-01
3.186274509803921351e-02
3.186274509803921351e-02
8.553921568627450567e-01
8.553921568627450567e-01
8.553921568627450567e-01
8.602941176470588758e-01
8.590686274509803377e-01
4.460784313725490446e-01
4.473039215686274717e-01
8.651960784313725839e-01
8.676470588235294379e-01
8.713235294117647189e-01
8.725490196078431460e-01
4.509803921568627527e-01
4.509803921568627527e-01
4.509803921568627527e-01
4.509803921568627527e-01
8.700980392156862919e-01
8.676470588235294379e-01
8.700980392156862919e-01
8.700980392156862919e-01
8.750000000000000000e-01
4.497549019607843257e-01
4.497549019607843257e-01
4.485294117647058987e-01
8.664215686274510109e-01
8.664215686274510109e-01
8.627450980392157298e-01
8.578431372549019107e-01
8.553921568627450567e-01
8.517156862745097756e-01
4.375000000000000000e-01
4.338235294117647189e-01
4.313725490196078649e-01
8.443627450980392135e-01
8.541666666666666297e-01
8.602941176470588758e-01
8.651960784313725839e-01
8.737745098039215730e-01
8.786764705882352811e-01
8.860294117647058432e-01
8.884803921568626972e-01
4.558823529411764608e-01
2.450980392156862711e-02
4.571078431372548878e-01
2.818627450980392204e-02
2.941176470588235253e-02
2.941176470588235253e-02
2.941176470588235253e-02
4.595588235294117418e-01
4.595588235294117418e-01
8.921568627450980893e-01
8.970588235294117974e-01
8.970588235294117974e-01
4.166666666666666435e-02
8.897058823529411242e-01
8.590686274509803377e-01
8.210784313725489891e-01
7.867647058823529216e-01
7.524509803921568540e-01
6.985294117647058432e-01
