3.862275449101796321e-01
3.862275449101796321e-01
3.844777976514503481e-01
3.827280503927210642e-01
3.809783031339917803e-01
3.792285558752624408e-01
3.774788086165331569e-01
3.757290613578038729e-01
3.739793140990745890e-01
3.722295668403453051e-01
3.704798195816160211e-01
3.687300723228867372e-01
3.669803250641574532e-01
3.652305778054280583e-01
3.634808305466987743e-01
3.617310832879694904e-01
3.599813360292402065e-01
3.582315887705109225e-01
3.564818415117816386e-01
3.547320942530523546e-01
3.529823469943230707e-01
3.512325997355937313e-01
3.494828524768644473e-01
3.477331052181351634e-01
3.459833579594058794e-01
3.442336107006765955e-01
3.424838634419473116e-01
3.407341161832180276e-01
3.389843689244886327e-01
3.372346216657593487e-01
3.354848744070300648e-01
3.337351271483007809e-01
3.319853798895714969e-01
3.302356326308422130e-01
3.284858853721129290e-01
3.267361381133836451e-01
3.249863908546543612e-01
3.232366435959250217e-01
3.214868963371957378e-01
3.197371490784664538e-01
3.179874018197371699e-01
3.162376545610078860e-01
3.144879073022786020e-01
3.127381600435493181e-01
3.109884127848199231e-01
3.092386655260906392e-01
3.074889182673613552e-01
3.057391710086320713e-01
3.039894237499027874e-01
3.022396764911735034e-01
3.004899292324442195e-01
2.987401819737149355e-01
2.969904347149855961e-01
2.952406874562563122e-01
2.934909401975270282e-01
2.917411929387977443e-01
2.899914456800684603e-01
2.882416984213391764e-01
2.864919511626098925e-01
2.847422039038804975e-01
2.829924566451512136e-01
2.812427093864219296e-01
2.794929621276926457e-01
2.777432148689633618e-01
2.759934676102340778e-01
2.742437203515047939e-01
2.724939730927755099e-01
2.707442258340462260e-01
2.689944785753168865e-01
2.672447313165876026e-01
2.654949840578583187e-01
2.637452367991290347e-01
2.619954895403997508e-01
2.602457422816704669e-01
2.584959950229410719e-01
2.567462477642117880e-01
2.549965005054825040e-01
2.532467532467532201e-01
2.514970059880239361e-01
2.080838323353293440e-01
2.080838323353293440e-01
2.035928143712574800e-01
2.095808383233532801e-02
2.095808383233532801e-02
2.095808383233532801e-02
2.095808383233532801e-02
2.095808383233532801e-02
2.095808383233532801e-02
2.095808383233532801e-02
2.095808383233532801e-02
2.095808383233532801e-02
2.095808383233532801e-02
2.095808383233532801e-02
2.095808383233532801e-02
2.095808383233532801e-02
2.095808383233532801e-02
2.095808383233532801e-02
2.095808383233532801e-02
2.095808383233532801e-02
2.095808383233532801e-02
2.095808383233532801e-02
2.095808383233532801e-02
2.095808383233532801e-02
2.095808383233532801e-02
2.095808383233532801e-02
2.095808383233532801e-02
2.095808383233532801e-02
2.095808383233532801e-02
2.095808383233532801e-02
2.095808383233532801e-02
2.095808383233532801e-02
2.095808383233532801e-02
2.095808383233532801e-02
2.095808383233532801e-02
2.095808383233532801e-02
2.095808383233532801e-02
2.095808383233532801e-02
2.095808383233532801e-02
2.020958083832335439e-01
2.080838323353293440e-01
2.125748502994012079e-01
2.440119760479041999e-01
3.802395209580838320e-01
3.817365269461077681e-01
3.802395209580838320e-01
2.664670658682634641e-01
2.664670658682634641e-01
2.649700598802395279e-01
2.634730538922155918e-01
2.634730538922155918e-01
2.634730538922155918e-01
3.802395209580838320e-01
3.802395209580838320e-01
3.802395209580838320e-01
2.664670658682634641e-01
2.664670658682634641e-01
2.634730538922155918e-01
2.619760479041916001e-01
2.604790419161676640e-01
2.604790419161676640e-01
2.589820359281437279e-01
2.589820359281437279e-01
2.589820359281437279e-01
2.589820359281437279e-01
2.589820359281437279e-01
2.574850299401197362e-01
2.574850299401197362e-01
2.574850299401197362e-01
2.574850299401197362e-01
2.574850299401197362e-01
2.574850299401197362e-01
2.604790419161676640e-01
2.604790419161676640e-01
2.589820359281437279e-01
2.574850299401197362e-01
2.574850299401197362e-01
2.559880239520958001e-01
2.559880239520958001e-01
2.567365269461077681e-01
2.574850299401197362e-01
2.574850299401197362e-01
2.574850299401197362e-01
2.574850299401197362e-01
2.574850299401197362e-01
2.574850299401197362e-01
2.559880239520958001e-01
2.559880239520958001e-01
2.544910179640718639e-01
2.529940119760479278e-01
2.455089820359281361e-01
2.425149700598802360e-01
2.395209580838323360e-01
2.365269461077844360e-01
2.335329341317365359e-01
2.320359281437125720e-01
2.275449101796407081e-01
2.260479041916167720e-01
2.275449101796407081e-01
2.275449101796407081e-01
2.305389221556886359e-01
2.305389221556886359e-01
2.320359281437125720e-01
2.335329341317365359e-01
2.350299401197604721e-01
2.350299401197604721e-01
2.365269461077844360e-01
2.380239520958083721e-01
2.395209580838323360e-01
2.395209580838323360e-01
2.395209580838323360e-01
2.395209580838323360e-01
2.395209580838323360e-01
2.395209580838323360e-01
2.395209580838323360e-01
2.395209580838323360e-01
2.395209580838323360e-01
2.395209580838323360e-01
2.410179640718562999e-01
2.425149700598802360e-01
2.440119760479041999e-01
2.440119760479041999e-01
2.440119760479041999e-01
2.455089820359281361e-01
2.455089820359281361e-01
2.470059880239521000e-01
2.485029940119760361e-01
2.425149700598802360e-01
2.230538922155688719e-01
2.020958083832335439e-01
1.751497005988023881e-01
1.452095808383233599e-01
1.287425149700598681e-01
1.437125748502993960e-01
1.766467065868263520e-01
2.035928143712574800e-01
2.320359281437125720e-01
2.500000000000000000e-01
2.425149700598802360e-01
2.350299401197604721e-01
2.245508982035928081e-01
2.245508982035928081e-01
2.260479041916167720e-01
2.275449101796407081e-01
2.275449101796407081e-01
2.230538922155688719e-01
2.185628742514970080e-01
2.155688622754491079e-01
2.155688622754491079e-01
2.140718562874251440e-01
2.125748502994012079e-01
2.125748502994012079e-01
2.140718562874251440e-01
2.155688622754491079e-01
2.155688622754491079e-01
2.110778443113772440e-01
2.095808383233532801e-01
2.065868263473053801e-01
2.073353293413173759e-01
2.080838323353293440e-01
2.080838323353293440e-01
2.080838323353293440e-01
2.080838323353293440e-01
2.080838323353293440e-01
2.080838323353293440e-01
2.050898203592814439e-01
2.005988023952095800e-01
1.961077844311377161e-01
1.916167664670658799e-01
1.901197604790419160e-01
1.886227544910179521e-01
1.841317365269461159e-01
1.811377245508982159e-01
1.766467065868263520e-01
1.721556886227544880e-01
1.706586826347305519e-01
1.691616766467065880e-01
1.676646706586826241e-01
1.631736526946107879e-01
1.616766467065868240e-01
1.586826347305389240e-01
1.586826347305389240e-01
1.616766467065868240e-01
1.646706586826347241e-01
1.661676646706586880e-01
1.706586826347305519e-01
1.751497005988023881e-01
1.796407185628742520e-01
1.841317365269461159e-01
1.901197604790419160e-01
1.901197604790419160e-01
1.916167664670658799e-01
1.916167664670658799e-01
1.946107784431137799e-01
1.961077844311377161e-01
1.976047904191616800e-01
2.005988023952095800e-01
2.005988023952095800e-01
2.020958083832335439e-01
2.035928143712574800e-01
2.050898203592814439e-01
2.065868263473053801e-01
2.080838323353293440e-01
2.080838323353293440e-01
2.050898203592814439e-01
2.035928143712574800e-01
2.035928143712574800e-01
2.020958083832335439e-01
2.020958083832335439e-01
1.991017964071856161e-01
1.991017964071856161e-01
1.991017964071856161e-01
2.005988023952095800e-01
2.005988023952095800e-01
2.020958083832335439e-01
2.020958083832335439e-01
2.035928143712574800e-01
2.035928143712574800e-01
2.035928143712574800e-01
2.005988023952095800e-01
1.976047904191616800e-01
1.976047904191616800e-01
1.991017964071856161e-01
1.991017964071856161e-01
1.991017964071856161e-01
2.005988023952095800e-01
1.961077844311377161e-01
1.946107784431137799e-01
1.901197604790419160e-01
1.901197604790419160e-01
1.901197604790419160e-01
1.901197604790419160e-01
1.901197604790419160e-01
1.901197604790419160e-01
1.901197604790419160e-01
1.901197604790419160e-01
1.901197604790419160e-01
1.901197604790419160e-01
1.931137724550898160e-01
1.961077844311377161e-01
2.005988023952095800e-01
1.991017964071856161e-01
1.961077844311377161e-01
1.961077844311377161e-01
1.961077844311377161e-01
1.976047904191616800e-01
1.946107784431137799e-01
1.916167664670658799e-01
1.886227544910179521e-01
1.901197604790419160e-01
1.901197604790419160e-01
1.901197604790419160e-01
1.901197604790419160e-01
1.886227544910179521e-01
1.826347305389221520e-01
1.781437125748502881e-01
1.706586826347305519e-01
1.721556886227544880e-01
1.736526946107784519e-01
1.706586826347305519e-01
1.676646706586826241e-01
1.691616766467065880e-01
1.706586826347305519e-01
1.721556886227544880e-01
1.676646706586826241e-01
1.676646706586826241e-01
1.661676646706586880e-01
1.721556886227544880e-01
1.766467065868263520e-01
1.796407185628742520e-01
1.796407185628742520e-01
1.781437125748502881e-01
5.883233532934131205e-01
1.751497005988023881e-01
1.751497005988023881e-01
1.751497005988023881e-01
1.751497005988023881e-01
1.766467065868263520e-01
1.766467065868263520e-01
1.781437125748502881e-01
1.781437125748502881e-01
1.811377245508982159e-01
1.811377245508982159e-01
1.826347305389221520e-01
1.826347305389221520e-01
1.841317365269461159e-01
1.841317365269461159e-01
1.811377245508982159e-01
1.886227544910179521e-01
1.946107784431137799e-01
1.841317365269461159e-01
1.541916167664670601e-01
1.287425149700598681e-01
1.032934131736526900e-01
7.634730538922156196e-02
7.634730538922156196e-02
9.880239520958083999e-02
1.272455089820359320e-01
1.631736526946107879e-01
1.781437125748502881e-01
1.856287425149700521e-01
1.826347305389221520e-01
1.706586826347305519e-01
1.691616766467065880e-01
1.691616766467065880e-01
1.706586826347305519e-01
1.706586826347305519e-01
1.721556886227544880e-01
1.000000000000000000e+00
1.000000000000000000e+00
1.000000000000000000e+00
5.838323353293413120e-01
5.838323353293413120e-01
1.676646706586826241e-01
1.646706586826347241e-01
1.616766467065868240e-01
1.601796407185628879e-01
5.823353293413173759e-01
5.823353293413173759e-01
1.646706586826347241e-01
1.631736526946107879e-01
1.631736526946107879e-01
1.631736526946107879e-01
1.571856287425149601e-01
1.571856287425149601e-01
1.511976047904191600e-01
1.511976047904191600e-01
1.511976047904191600e-01
1.497005988023951961e-01
1.467065868263472961e-01
1.422155688622754599e-01
1.407185628742514960e-01
1.392215568862275321e-01
1.392215568862275321e-01
1.332335329341317320e-01
1.317365269461077959e-01
1.272455089820359320e-01
1.257485029940119681e-01
1.242514970059880181e-01
1.227544910179640680e-01
1.197604790419161680e-01
1.167664670658682680e-01
1.152694610778443179e-01
1.137724550898203540e-01
1.152694610778443179e-01
1.167664670658682680e-01
1.197604790419161680e-01
1.212574850299401180e-01
1.227544910179640680e-01
1.272455089820359320e-01
1.302395209580838320e-01
1.407185628742514960e-01
5.718562874251497119e-01
1.497005988023951961e-01
1.556886227544910239e-01
1.586826347305389240e-01
1.646706586826347241e-01
5.808383233532934398e-01
1.616766467065868240e-01
1.601796407185628879e-01
1.586826347305389240e-01
1.616766467065868240e-01
1.616766467065868240e-01
1.646706586826347241e-01
1.646706586826347241e-01
1.646706586826347241e-01
5.793413173652695036e-01
1.616766467065868240e-01
1.616766467065868240e-01
1.616766467065868240e-01
5.793413173652695036e-01
5.793413173652695036e-01
5.793413173652695036e-01
9.940119760479041444e-01
9.925149700598802083e-01
5.778443113772454565e-01
5.778443113772454565e-01
5.778443113772454565e-01
5.778443113772454565e-01
5.778443113772454565e-01
5.778443113772454565e-01
5.778443113772454565e-01
1.631736526946107879e-01
5.748502994011975842e-01
9.910179640718562721e-01
9.910179640718562721e-01
5.763473053892215203e-01
1.616766467065868240e-01
1.616766467065868240e-01
5.778443113772454565e-01
9.940119760479041444e-01
9.940119760479041444e-01
5.793413173652695036e-01
5.793413173652695036e-01
1.601796407185628879e-01
1.646706586826347241e-01
5.808383233532934398e-01
1.676646706586826241e-01
1.676646706586826241e-01
1.676646706586826241e-01
5.823353293413173759e-01
1.706586826347305519e-01
1.706586826347305519e-01
1.706586826347305519e-01
5.838323353293413120e-01
5.838323353293413120e-01
1.676646706586826241e-01
1.676646706586826241e-01
9.925149700598802083e-01
9.910179640718562721e-01
5.763473053892215203e-01
1.616766467065868240e-01
9.940119760479041444e-01
9.940119760479041444e-01
1.556886227544910239e-01
1.556886227544910239e-01
5.748502994011975842e-01
5.763473053892215203e-01
1.526946107784431239e-01
1.511976047904191600e-01
1.511976047904191600e-01
5.688622754491018396e-01
1.437125748502993960e-01
5.718562874251497119e-01
1.497005988023951961e-01
1.511976047904191600e-01
1.526946107784431239e-01
1.556886227544910239e-01
5.778443113772454565e-01
5.793413173652695036e-01
5.808383233532934398e-01
1.676646706586826241e-01
1.676646706586826241e-01
1.676646706586826241e-01
1.661676646706586880e-01
5.823353293413173759e-01
5.823353293413173759e-01
1.706586826347305519e-01
1.706586826347305519e-01
5.838323353293413120e-01
5.838323353293413120e-01
1.736526946107784519e-01
1.736526946107784519e-01
1.736526946107784519e-01
1.736526946107784519e-01
1.736526946107784519e-01
1.781437125748502881e-01
1.841317365269461159e-01
1.886227544910179521e-01
5.958083832335329122e-01
1.796407185628742520e-01
1.706586826347305519e-01
1.407185628742514960e-01
1.197604790419161680e-01
8.832335329341317598e-02
7.035928143712574800e-02
8.532934131736527594e-02
1.182634730538922180e-01
1.482035928143712600e-01
1.721556886227544880e-01
1.856287425149700521e-01
1.871257485029940160e-01
1.811377245508982159e-01
1.781437125748502881e-01
1.676646706586826241e-01
1.676646706586826241e-01
1.646706586826347241e-01
1.661676646706586880e-01
1.676646706586826241e-01
1.676646706586826241e-01
1.691616766467065880e-01
1.691616766467065880e-01
1.691616766467065880e-01
1.706586826347305519e-01
1.721556886227544880e-01
1.721556886227544880e-01
1.736526946107784519e-01
1.736526946107784519e-01
1.691616766467065880e-01
1.661676646706586880e-01
1.646706586826347241e-01
1.691616766467065880e-01
1.736526946107784519e-01
1.751497005988023881e-01
1.736526946107784519e-01
1.721556886227544880e-01
1.706586826347305519e-01
1.736526946107784519e-01
1.706586826347305519e-01
1.676646706586826241e-01
1.616766467065868240e-01
1.616766467065868240e-01
1.601796407185628879e-01
1.601796407185628879e-01
1.541916167664670601e-01
1.526946107784431239e-01
1.467065868263472961e-01
1.467065868263472961e-01
1.467065868263472961e-01
1.467065868263472961e-01
1.452095808383233599e-01
1.452095808383233599e-01
1.452095808383233599e-01
1.452095808383233599e-01
1.452095808383233599e-01
1.467065868263472961e-01
1.482035928143712600e-01
1.497005988023951961e-01
1.526946107784431239e-01
1.571856287425149601e-01
1.631736526946107879e-01
1.691616766467065880e-01
1.751497005988023881e-01
1.811377245508982159e-01
1.841317365269461159e-01
1.856287425149700521e-01
1.871257485029940160e-01
1.886227544910179521e-01
1.886227544910179521e-01
1.886227544910179521e-01
1.916167664670658799e-01
1.931137724550898160e-01
1.916167664670658799e-01
1.916167664670658799e-01
1.901197604790419160e-01
1.901197604790419160e-01
1.916167664670658799e-01
1.931137724550898160e-01
1.931137724550898160e-01
2.514970059880239361e-01
2.514970059880239361e-01
2.514970059880239361e-01
2.514970059880239361e-01
2.514970059880239361e-01
2.514970059880239361e-01
3.997005988023952239e-01
3.922155688622754321e-01
3.907185628742514960e-01
3.727544910179640958e-01
3.802395209580838320e-01
3.742514970059880319e-01
3.802395209580838320e-01
3.802395209580838320e-01
3.742514970059880319e-01
3.802395209580838320e-01
3.772455089820359042e-01
3.922155688622754321e-01
3.922155688622754321e-01
3.952095808383233599e-01
2.874251497005987921e-01
2.874251497005987921e-01
2.904191616766467199e-01
3.218562874251497119e-01
3.547904191616766401e-01
3.607784431137724401e-01
3.697604790419161680e-01
3.802395209580838320e-01
3.832335329341317598e-01
3.862275449101796321e-01
3.982035928143712322e-01
4.041916167664670878e-01
4.071856287425149601e-01
4.041916167664670878e-01
3.982035928143712322e-01
3.907185628742514960e-01
3.802395209580838320e-01
3.727544910179640958e-01
3.637724550898203679e-01
3.577844311377245679e-01
3.547904191616766401e-01
2.844311377245509198e-01
2.799401197604790559e-01
2.769461077844311281e-01
2.709580838323353280e-01
3.547904191616766401e-01
3.802395209580838320e-01
3.802395209580838320e-01
3.832335329341317598e-01
2.664670658682634641e-01
4.101796407185628879e-01
3.368263473053892398e-01
3.368263473053892398e-01
3.368263473053892398e-01
3.383233532934131760e-01
4.101796407185628879e-01
3.398203592814371121e-01
4.101796407185628879e-01
3.398203592814371121e-01
4.101796407185628879e-01
2.634730538922155918e-01
2.634730538922155918e-01
2.664670658682634641e-01
2.694610778443113919e-01
2.694610778443113919e-01
2.694610778443113919e-01
2.694610778443113919e-01
2.694610778443113919e-01
2.694610778443113919e-01
2.694610778443113919e-01
2.694610778443113919e-01
2.679640718562874002e-01
2.679640718562874002e-01
2.664670658682634641e-01
2.664670658682634641e-01
2.679640718562874002e-01
2.664670658682634641e-01
2.604790419161676640e-01
2.275449101796407081e-01
1.931137724550898160e-01
1.467065868263472961e-01
8.982035928143712600e-02
7.335329341317364804e-02
1.287425149700598681e-01
1.841317365269461159e-01
2.350299401197604721e-01
2.679640718562874002e-01
2.664670658682634641e-01
2.589820359281437279e-01
2.455089820359281361e-01
2.425149700598802360e-01
2.410179640718562999e-01
2.410179640718562999e-01
2.455089820359281361e-01
2.485029940119760361e-01
2.470059880239521000e-01
2.410179640718562999e-01
2.395209580838323360e-01
2.395209580838323360e-01
2.395209580838323360e-01
2.380239520958083721e-01
2.380239520958083721e-01
2.372754491017964040e-01
2.365269461077844360e-01
2.365269461077844360e-01
2.395209580838323360e-01
2.365269461077844360e-01
2.350299401197604721e-01
2.320359281437125720e-01
2.320359281437125720e-01
2.305389221556886359e-01
2.260479041916167720e-01
2.245508982035928081e-01
2.230538922155688719e-01
2.230538922155688719e-01
2.200598802395209719e-01
2.185628742514970080e-01
2.185628742514970080e-01
2.140718562874251440e-01
2.125748502994012079e-01
2.095808383233532801e-01
2.095808383233532801e-01
2.050898203592814439e-01
2.035928143712574800e-01
1.991017964071856161e-01
1.946107784431137799e-01
1.931137724550898160e-01
1.886227544910179521e-01
1.886227544910179521e-01
1.901197604790419160e-01
1.901197604790419160e-01
1.901197604790419160e-01
1.901197604790419160e-01
1.946107784431137799e-01
1.976047904191616800e-01
2.035928143712574800e-01
2.080838323353293440e-01
2.110778443113772440e-01
2.155688622754491079e-01
2.215568862275449080e-01
2.245508982035928081e-01
2.260479041916167720e-01
2.275449101796407081e-01
2.290419161676646720e-01
2.290419161676646720e-01
2.290419161676646720e-01
2.290419161676646720e-01
2.305389221556886359e-01
2.320359281437125720e-01
2.320359281437125720e-01
2.320359281437125720e-01
2.320359281437125720e-01
2.335329341317365359e-01
2.290419161676646720e-01
2.290419161676646720e-01
2.245508982035928081e-01
2.260479041916167720e-01
2.275449101796407081e-01
2.305389221556886359e-01
2.305389221556886359e-01
2.290419161676646720e-01
2.275449101796407081e-01
2.275449101796407081e-01
2.275449101796407081e-01
2.260479041916167720e-01
2.260479041916167720e-01
2.260479041916167720e-01
2.260479041916167720e-01
2.245508982035928081e-01
2.245508982035928081e-01
2.245508982035928081e-01
2.245508982035928081e-01
2.260479041916167720e-01
2.275449101796407081e-01
2.260479041916167720e-01
2.260479041916167720e-01
2.230538922155688719e-01
2.200598802395209719e-01
2.200598802395209719e-01
2.170658682634730441e-01
2.178143712574850399e-01
2.185628742514970080e-01
2.185628742514970080e-01
2.185628742514970080e-01
2.185628742514970080e-01
2.185628742514970080e-01
2.185628742514970080e-01
2.185628742514970080e-01
2.185628742514970080e-01
2.185628742514970080e-01
2.200598802395209719e-01
2.200598802395209719e-01
2.185628742514970080e-01
2.185628742514970080e-01
2.185628742514970080e-01
2.155688622754491079e-01
2.140718562874251440e-01
2.155688622754491079e-01
2.185628742514970080e-01
2.230538922155688719e-01
2.215568862275449080e-01
2.185628742514970080e-01
2.125748502994012079e-01
2.125748502994012079e-01
2.095808383233532801e-01
2.080838323353293440e-01
2.035928143712574800e-01
2.020958083832335439e-01
2.005988023952095800e-01
2.020958083832335439e-01
2.035928143712574800e-01
2.035928143712574800e-01
2.050898203592814439e-01
2.065868263473053801e-01
2.110778443113772440e-01
2.125748502994012079e-01
2.125748502994012079e-01
2.125748502994012079e-01
2.125748502994012079e-01
2.110778443113772440e-01
2.095808383233532801e-01
2.095808383233532801e-01
2.095808383233532801e-01
2.125748502994012079e-01
2.125748502994012079e-01
2.125748502994012079e-01
2.125748502994012079e-01
2.125748502994012079e-01
2.125748502994012079e-01
2.125748502994012079e-01
2.140718562874251440e-01
2.155688622754491079e-01
2.155688622754491079e-01
2.095808383233532801e-01
1.856287425149700521e-01
1.526946107784431239e-01
1.032934131736526900e-01
5.389221556886227699e-02
1.946107784431137799e-02
6.437125748502993405e-02
1.047904191616766401e-01
1.556886227544910239e-01
1.901197604790419160e-01
1.976047904191616800e-01
1.976047904191616800e-01
2.035928143712574800e-01
2.020958083832335439e-01
2.020958083832335439e-01
2.020958083832335439e-01
2.050898203592814439e-01
2.050898203592814439e-01
2.035928143712574800e-01
2.020958083832335439e-01
2.020958083832335439e-01
1.991017964071856161e-01
1.946107784431137799e-01
1.931137724550898160e-01
1.946107784431137799e-01
1.946107784431137799e-01
1.938622754491017841e-01
1.931137724550898160e-01
1.946107784431137799e-01
1.961077844311377161e-01
1.976047904191616800e-01
1.961077844311377161e-01
1.961077844311377161e-01
1.916167664670658799e-01
1.886227544910179521e-01
1.841317365269461159e-01
1.796407185628742520e-01
1.796407185628742520e-01
1.781437125748502881e-01
1.781437125748502881e-01
1.766467065868263520e-01
1.751497005988023881e-01
1.736526946107784519e-01
1.736526946107784519e-01
1.736526946107784519e-01
1.691616766467065880e-01
1.661676646706586880e-01
1.631736526946107879e-01
1.616766467065868240e-01
1.601796407185628879e-01
1.556886227544910239e-01
1.541916167664670601e-01
1.526946107784431239e-01
1.556886227544910239e-01
1.541916167664670601e-01
1.526946107784431239e-01
1.556886227544910239e-01
1.601796407185628879e-01
1.616766467065868240e-01
1.676646706586826241e-01
1.736526946107784519e-01
1.811377245508982159e-01
1.856287425149700521e-01
1.916167664670658799e-01
1.931137724550898160e-01
1.946107784431137799e-01
1.961077844311377161e-01
1.961077844311377161e-01
1.961077844311377161e-01
1.961077844311377161e-01
1.976047904191616800e-01
1.976047904191616800e-01
1.961077844311377161e-01
1.976047904191616800e-01
2.005988023952095800e-01
2.005988023952095800e-01
1.991017964071856161e-01
1.991017964071856161e-01
2.005988023952095800e-01
2.005988023952095800e-01
2.005988023952095800e-01
2.005988023952095800e-01
2.005988023952095800e-01
2.005988023952095800e-01
2.005988023952095800e-01
2.020958083832335439e-01
2.050898203592814439e-01
2.035928143712574800e-01
2.020958083832335439e-01
1.991017964071856161e-01
1.991017964071856161e-01
2.005988023952095800e-01
2.005988023952095800e-01
2.020958083832335439e-01
2.035928143712574800e-01
2.035928143712574800e-01
2.050898203592814439e-01
2.035928143712574800e-01
2.020958083832335439e-01
1.991017964071856161e-01
1.976047904191616800e-01
1.976047904191616800e-01
1.991017964071856161e-01
1.991017964071856161e-01
2.005988023952095800e-01
2.020958083832335439e-01
2.035928143712574800e-01
2.035928143712574800e-01
2.050898203592814439e-01
2.050898203592814439e-01
2.065868263473053801e-01
2.035928143712574800e-01
2.005988023952095800e-01
2.005988023952095800e-01
2.020958083832335439e-01
2.035928143712574800e-01
2.035928143712574800e-01
2.005988023952095800e-01
1.991017964071856161e-01
1.946107784431137799e-01
1.946107784431137799e-01
1.946107784431137799e-01
1.946107784431137799e-01
1.946107784431137799e-01
1.946107784431137799e-01
1.931137724550898160e-01
1.931137724550898160e-01
1.946107784431137799e-01
1.961077844311377161e-01
1.961077844311377161e-01
1.946107784431137799e-01
1.931137724550898160e-01
1.916167664670658799e-01
1.901197604790419160e-01
1.871257485029940160e-01
1.856287425149700521e-01
1.841317365269461159e-01
1.841317365269461159e-01
1.826347305389221520e-01
1.871257485029940160e-01
1.901197604790419160e-01
1.961077844311377161e-01
1.991017964071856161e-01
1.991017964071856161e-01
2.020958083832335439e-01
2.035928143712574800e-01
2.050898203592814439e-01
2.065868263473053801e-01
2.065868263473053801e-01
2.050898203592814439e-01
2.035928143712574800e-01
2.035928143712574800e-01
2.065868263473053801e-01
2.020958083832335439e-01
2.005988023952095800e-01
2.005988023952095800e-01
2.050898203592814439e-01
2.080838323353293440e-01
2.125748502994012079e-01
2.140718562874251440e-01
2.095808383233532801e-01
1.916167664670658799e-01
1.616766467065868240e-01
1.002994011976047900e-01
5.688622754491017702e-02
0.000000000000000000e+00
2.395209580838323499e-02
7.784431137724551197e-02
1.272455089820359320e-01
1.661676646706586880e-01
1.901197604790419160e-01
1.886227544910179521e-01
1.901197604790419160e-01
1.916167664670658799e-01
1.931137724550898160e-01
1.931137724550898160e-01
1.946107784431137799e-01
1.991017964071856161e-01
1.961077844311377161e-01
1.961077844311377161e-01
1.901197604790419160e-01
1.901197604790419160e-01
1.901197604790419160e-01
1.916167664670658799e-01
1.931137724550898160e-01
1.976047904191616800e-01
1.976047904191616800e-01
1.931137724550898160e-01
1.901197604790419160e-01
1.856287425149700521e-01
1.901197604790419160e-01
1.886227544910179521e-01
1.886227544910179521e-01
1.856287425149700521e-01
1.886227544910179521e-01
1.826347305389221520e-01
1.811377245508982159e-01
1.736526946107784519e-01
1.736526946107784519e-01
1.736526946107784519e-01
1.751497005988023881e-01
1.751497005988023881e-01
1.766467065868263520e-01
1.706586826347305519e-01
1.691616766467065880e-01
1.661676646706586880e-01
1.676646706586826241e-01
1.616766467065868240e-01
1.601796407185628879e-01
1.556886227544910239e-01
1.541916167664670601e-01
1.526946107784431239e-01
1.541916167664670601e-01
1.571856287425149601e-01
1.601796407185628879e-01
1.586826347305389240e-01
1.556886227544910239e-01
1.586826347305389240e-01
1.646706586826347241e-01
1.676646706586826241e-01
1.706586826347305519e-01
1.736526946107784519e-01
1.781437125748502881e-01
1.841317365269461159e-01
1.886227544910179521e-01
1.961077844311377161e-01
1.991017964071856161e-01
1.991017964071856161e-01
1.946107784431137799e-01
1.916167664670658799e-01
1.886227544910179521e-01
1.916167664670658799e-01
1.976047904191616800e-01
2.035928143712574800e-01
2.065868263473053801e-01
2.065868263473053801e-01
2.065868263473053801e-01
2.095808383233532801e-01
2.095808383233532801e-01
2.035928143712574800e-01
2.005988023952095800e-01
1.976047904191616800e-01
2.005988023952095800e-01
2.020958083832335439e-01
2.020958083832335439e-01
2.005988023952095800e-01
1.991017964071856161e-01
1.991017964071856161e-01
2.005988023952095800e-01
2.005988023952095800e-01
2.020958083832335439e-01
1.961077844311377161e-01
1.946107784431137799e-01
1.976047904191616800e-01
2.035928143712574800e-01
2.050898203592814439e-01
2.050898203592814439e-01
2.050898203592814439e-01
2.050898203592814439e-01
2.514970059880239361e-01
2.514970059880239361e-01
2.514970059880239361e-01
2.514970059880239361e-01
2.544910179640718639e-01
2.559880239520958001e-01
3.577844311377245679e-01
3.622754491017964318e-01
3.682634730538922319e-01
3.772455089820359042e-01
3.847305389221556959e-01
3.907185628742514960e-01
3.997005988023952239e-01
4.056886227544910239e-01
4.071856287425149601e-01
4.041916167664670878e-01
3.982035928143712322e-01
3.877245508982035682e-01
3.832335329341317598e-01
3.787425149700598959e-01
3.682634730538922319e-01
3.607784431137724401e-01
3.577844311377245679e-01
3.532934131736527039e-01
2.290419161676646720e-01
2.290419161676646720e-01
3.607784431137724401e-01
3.622754491017964318e-01
3.817365269461077681e-01
4.011976047904191600e-01
3.982035928143712322e-01
3.952095808383233599e-01
3.742514970059880319e-01
3.892215568862275599e-01
3.727544910179640958e-01
3.712574850299401041e-01
3.787425149700598959e-01
3.697604790419161680e-01
3.727544910179640958e-01
3.697604790419161680e-01
2.335329341317365359e-01
2.320359281437125720e-01
2.320359281437125720e-01
2.335329341317365359e-01
2.350299401197604721e-01
2.350299401197604721e-01
2.365269461077844360e-01
2.365269461077844360e-01
2.380239520958083721e-01
2.380239520958083721e-01
2.395209580838323360e-01
2.395209580838323360e-01
2.410179640718562999e-01
2.425149700598802360e-01
2.425149700598802360e-01
2.440119760479041999e-01
2.425149700598802360e-01
2.425149700598802360e-01
2.395209580838323360e-01
2.395209580838323360e-01
2.425149700598802360e-01
2.335329341317365359e-01
2.230538922155688719e-01
2.125748502994012079e-01
1.991017964071856161e-01
1.976047904191616800e-01
8.682634730538921763e-01
1.736526946107784519e-01
2.889221556886227282e-01
4.131736526946107602e-01
5.269461077844311836e-01
6.077844311377245123e-01
7.305389221556886081e-01
6.796407185628742242e-01
5.598802395209581118e-01
4.610778443113772718e-01
3.787425149700598959e-01
3.143712574850299202e-01
2.694610778443113919e-01
2.470059880239521000e-01
2.350299401197604721e-01
2.260479041916167720e-01
2.230538922155688719e-01
2.170658682634730441e-01
2.125748502994012079e-01
2.110778443113772440e-01
2.095808383233532801e-01
2.080838323353293440e-01
2.065868263473053801e-01
2.050898203592814439e-01
2.020958083832335439e-01
1.991017964071856161e-01
1.961077844311377161e-01
1.946107784431137799e-01
1.916167664670658799e-01
1.901197604790419160e-01
1.856287425149700521e-01
1.826347305389221520e-01
1.796407185628742520e-01
1.766467065868263520e-01
1.706586826347305519e-01
1.646706586826347241e-01
1.571856287425149601e-01
1.526946107784431239e-01
1.482035928143712600e-01
1.437125748502993960e-01
1.287425149700598681e-01
1.212574850299401180e-01
1.077844311377245540e-01
9.580838323353293995e-02
8.383233532934131205e-02
7.485029940119759806e-02
9.281437125748502881e-01
9.221556886227545435e-01
9.206586826347304964e-01
9.131736526946108157e-01
4.775449101796407358e-01
4.640718562874251302e-02
5.838323353293413398e-02
7.934131736526946199e-02
1.017964071856287400e-01
1.137724550898203540e-01
1.511976047904191600e-01
1.676646706586826241e-01
1.781437125748502881e-01
1.856287425149700521e-01
1.991017964071856161e-01
2.095808383233532801e-01
2.200598802395209719e-01
2.260479041916167720e-01
2.320359281437125720e-01
2.380239520958083721e-01
2.410179640718562999e-01
2.455089820359281361e-01
2.470059880239521000e-01
2.470059880239521000e-01
2.470059880239521000e-01
2.470059880239521000e-01
2.470059880239521000e-01
2.470059880239521000e-01
2.500000000000000000e-01
2.500000000000000000e-01
2.514970059880239361e-01
2.514970059880239361e-01
2.514970059880239361e-01
2.529940119760479278e-01
2.529940119760479278e-01
2.514970059880239361e-01
2.514970059880239361e-01
2.514970059880239361e-01
2.514970059880239361e-01
2.514970059880239361e-01
2.514970059880239361e-01
2.500000000000000000e-01
2.514970059880239361e-01
2.529940119760479278e-01
2.559880239520958001e-01
2.574850299401197362e-01
2.574850299401197362e-01
2.589820359281437279e-01
2.589820359281437279e-01
2.589820359281437279e-01
2.589820359281437279e-01
2.589820359281437279e-01
2.589820359281437279e-01
2.589820359281437279e-01
2.589820359281437279e-01
2.589820359281437279e-01
2.589820359281437279e-01
2.589820359281437279e-01
2.604790419161676640e-01
2.619760479041916001e-01
2.619760479041916001e-01
2.619760479041916001e-01
2.619760479041916001e-01
2.619760479041916001e-01
2.619760479041916001e-01
2.619760479041916001e-01
2.619760479041916001e-01
2.634730538922155918e-01
2.634730538922155918e-01
2.619760479041916001e-01
2.619760479041916001e-01
2.604790419161676640e-01
2.604790419161676640e-01
2.589820359281437279e-01
2.574850299401197362e-01
2.574850299401197362e-01
2.559880239520958001e-01
2.559880239520958001e-01
2.559880239520958001e-01
2.514970059880239361e-01
2.514970059880239361e-01
2.500000000000000000e-01
2.500000000000000000e-01
2.514970059880239361e-01
2.514970059880239361e-01
2.559880239520958001e-01
2.559880239520958001e-01
2.559880239520958001e-01
2.589820359281437279e-01
2.619760479041916001e-01
2.619760479041916001e-01
2.619760479041916001e-01
2.649700598802395279e-01
2.679640718562874002e-01
2.694610778443113919e-01
2.694610778443113919e-01
2.694610778443113919e-01
2.694610778443113919e-01
2.694610778443113919e-01
2.709580838323353280e-01
2.724550898203592642e-01
2.739520958083832558e-01
2.724550898203592642e-01
2.724550898203592642e-01
2.709580838323353280e-01
2.694610778443113919e-01
2.694610778443113919e-01
2.679640718562874002e-01
2.664670658682634641e-01
2.544910179640718639e-01
2.485029940119760361e-01
2.290419161676646720e-01
1.961077844311377161e-01
2.140718562874251440e-01
9.041916167664670878e-01
2.095808383233532801e-01
3.158682634730539118e-01
4.296407185628742242e-01
5.464071856287424644e-01
6.377245508982035682e-01
7.215568862275448803e-01
6.482035928143712322e-01
5.374251497005988476e-01
4.535928143712574800e-01
3.712574850299401041e-01
3.203592814371257758e-01
2.829341317365269282e-01
2.694610778443113919e-01
2.567365269461077681e-01
2.440119760479041999e-01
2.425149700598802360e-01
2.365269461077844360e-01
2.320359281437125720e-01
2.305389221556886359e-01
2.275449101796407081e-01
2.275449101796407081e-01
2.260479041916167720e-01
2.230538922155688719e-01
2.185628742514970080e-01
2.170658682634730441e-01
2.155688622754491079e-01
2.125748502994012079e-01
2.095808383233532801e-01
2.065868263473053801e-01
2.035928143712574800e-01
2.005988023952095800e-01
1.961077844311377161e-01
1.916167664670658799e-01
1.871257485029940160e-01
1.811377245508982159e-01
1.721556886227544880e-01
1.661676646706586880e-01
1.571856287425149601e-01
1.482035928143712600e-01
1.407185628742514960e-01
1.302395209580838320e-01
1.212574850299401180e-01
1.152694610778443179e-01
5.464071856287424644e-01
5.374251497005988476e-01
9.700598802395209441e-01
5.209580838323353280e-01
9.580838323353293440e-01
5.134730538922155363e-01
5.134730538922155363e-01
7.784431137724551197e-02
9.131736526946107602e-02
9.580838323353293995e-02
1.242514970059880181e-01
1.482035928143712600e-01
1.586826347305389240e-01
1.691616766467065880e-01
1.856287425149700521e-01
2.020958083832335439e-01
2.140718562874251440e-01
2.260479041916167720e-01
2.320359281437125720e-01
2.395209580838323360e-01
2.440119760479041999e-01
2.455089820359281361e-01
2.507485029940119681e-01
2.559880239520958001e-01
2.559880239520958001e-01
2.559880239520958001e-01
2.574850299401197362e-01
2.604790419161676640e-01
2.634730538922155918e-01
2.619760479041916001e-01
2.604790419161676640e-01
2.604790419161676640e-01
2.604790419161676640e-01
2.589820359281437279e-01
2.574850299401197362e-01
2.574850299401197362e-01
2.559880239520958001e-01
2.559880239520958001e-01
2.574850299401197362e-01
2.589820359281437279e-01
2.604790419161676640e-01
2.604790419161676640e-01
2.604790419161676640e-01
2.604790419161676640e-01
2.604790419161676640e-01
2.604790419161676640e-01
2.604790419161676640e-01
2.604790419161676640e-01
2.604790419161676640e-01
2.604790419161676640e-01
2.604790419161676640e-01
2.619760479041916001e-01
2.619760479041916001e-01
2.619760479041916001e-01
2.619760479041916001e-01
2.619760479041916001e-01
2.619760479041916001e-01
2.634730538922155918e-01
2.649700598802395279e-01
2.664670658682634641e-01
2.664670658682634641e-01
2.679640718562874002e-01
2.679640718562874002e-01
2.679640718562874002e-01
2.679640718562874002e-01
2.679640718562874002e-01
2.679640718562874002e-01
2.694610778443113919e-01
2.694610778443113919e-01
2.694610778443113919e-01
2.694610778443113919e-01
2.694610778443113919e-01
2.694610778443113919e-01
2.679640718562874002e-01
2.664670658682634641e-01
2.664670658682634641e-01
2.649700598802395279e-01
2.634730538922155918e-01
2.634730538922155918e-01
2.634730538922155918e-01
2.634730538922155918e-01
2.634730538922155918e-01
2.634730538922155918e-01
2.634730538922155918e-01
2.634730538922155918e-01
2.634730538922155918e-01
2.634730538922155918e-01
2.634730538922155918e-01
2.649700598802395279e-01
2.649700598802395279e-01
2.649700598802395279e-01
2.694610778443113919e-01
2.709580838323353280e-01
2.754491017964071919e-01
2.769461077844311281e-01
2.769461077844311281e-01
2.769461077844311281e-01
2.769461077844311281e-01
2.754491017964071919e-01
2.754491017964071919e-01
2.754491017964071919e-01
2.754491017964071919e-01
2.754491017964071919e-01
2.754491017964071919e-01
2.739520958083832558e-01
2.739520958083832558e-01
2.739520958083832558e-01
2.739520958083832558e-01
2.649700598802395279e-01
2.574850299401197362e-01
2.485029940119760361e-01
2.140718562874251440e-01
2.095808383233532801e-01
8.997005988023951684e-01
1.871257485029940160e-01
2.739520958083832558e-01
3.907185628742514960e-01
5.074850299401197917e-01
5.823353293413173759e-01
7.260479041916167997e-01
6.916167664670658244e-01
5.883233532934131205e-01
4.880239520958083999e-01
4.086826347305388962e-01
3.428143712574850399e-01
3.053892215568862478e-01
2.844311377245509198e-01
2.649700598802395279e-01
2.619760479041916001e-01
2.589820359281437279e-01
2.529940119760479278e-01
2.500000000000000000e-01
2.440119760479041999e-01
2.425149700598802360e-01
2.395209580838323360e-01
2.380239520958083721e-01
2.335329341317365359e-01
2.335329341317365359e-01
2.305389221556886359e-01
2.290419161676646720e-01
2.275449101796407081e-01
2.245508982035928081e-01
2.230538922155688719e-01
2.200598802395209719e-01
2.155688622754491079e-01
2.095808383233532801e-01
2.065868263473053801e-01
2.005988023952095800e-01
1.931137724550898160e-01
1.856287425149700521e-01
1.766467065868263520e-01
1.706586826347305519e-01
1.586826347305389240e-01
1.526946107784431239e-01
1.482035928143712600e-01
1.392215568862275321e-01
5.583832335329341756e-01
5.494011976047904477e-01
5.404191616766467199e-01
1.002994011976047900e-01
9.281437125748502603e-02
5.164670658682635196e-01
9.431137724550898715e-01
8.083832335329341201e-02
5.134730538922155363e-01
9.880239520958083999e-02
1.032934131736526900e-01
1.242514970059880181e-01
1.541916167664670601e-01
1.766467065868263520e-01
1.856287425149700521e-01
1.961077844311377161e-01
2.110778443113772440e-01
2.290419161676646720e-01
2.365269461077844360e-01
2.485029940119760361e-01
2.589820359281437279e-01
2.649700598802395279e-01
2.694610778443113919e-01
2.724550898203592642e-01
2.739520958083832558e-01
2.739520958083832558e-01
2.724550898203592642e-01
2.724550898203592642e-01
2.724550898203592642e-01
2.724550898203592642e-01
2.709580838323353280e-01
2.709580838323353280e-01
2.694610778443113919e-01
2.694610778443113919e-01
2.694610778443113919e-01
2.709580838323353280e-01
2.709580838323353280e-01
2.709580838323353280e-01
2.709580838323353280e-01
2.709580838323353280e-01
2.724550898203592642e-01
2.724550898203592642e-01
2.724550898203592642e-01
2.724550898203592642e-01
2.724550898203592642e-01
2.724550898203592642e-01
2.724550898203592642e-01
2.724550898203592642e-01
2.724550898203592642e-01
2.724550898203592642e-01
2.739520958083832558e-01
2.724550898203592642e-01
2.724550898203592642e-01
2.724550898203592642e-01
2.724550898203592642e-01
2.754491017964071919e-01
2.784431137724550642e-01
2.784431137724550642e-01
2.784431137724550642e-01
2.784431137724550642e-01
2.784431137724550642e-01
2.784431137724550642e-01
2.799401197604790559e-01
2.799401197604790559e-01
2.799401197604790559e-01
2.799401197604790559e-01
2.514970059880239361e-01
2.514970059880239361e-01
2.514970059880239361e-01
2.514970059880239361e-01
2.514970059880239361e-01
2.574850299401197362e-01
3.577844311377245679e-01
3.622754491017964318e-01
3.697604790419161680e-01
3.772455089820359042e-01
3.847305389221556959e-01
3.937125748502994238e-01
4.011976047904191600e-01
4.056886227544910239e-01
4.071856287425149601e-01
4.041916167664670878e-01
3.997005988023952239e-01
3.907185628742514960e-01
3.832335329341317598e-01
3.742514970059880319e-01
3.667664670658682402e-01
3.592814371257485040e-01
3.547904191616766401e-01
3.547904191616766401e-01
2.604790419161676640e-01
2.604790419161676640e-01
3.368263473053892398e-01
3.667664670658682402e-01
3.667664670658682402e-01
3.667664670658682402e-01
3.742514970059880319e-01
3.652694610778443041e-01
3.562874251497005762e-01
3.652694610778443041e-01
3.742514970059880319e-01
3.742514970059880319e-01
3.772455089820359042e-01
3.847305389221556959e-01
3.862275449101796321e-01
3.907185628742514960e-01
3.907185628742514960e-01
2.739520958083832558e-01
2.739520958083832558e-01
2.739520958083832558e-01
2.739520958083832558e-01
2.724550898203592642e-01
2.724550898203592642e-01
2.724550898203592642e-01
2.754491017964071919e-01
2.769461077844311281e-01
2.754491017964071919e-01
2.470059880239521000e-01
2.095808383233532801e-01
1.811377245508982159e-01
1.526946107784431239e-01
9.041916167664670878e-01
9.580838323353293995e-02
2.230538922155688719e-01
2.934131736526945922e-01
3.368263473053892398e-01
4.176646706586826241e-01
4.011976047904191600e-01
3.847305389221556959e-01
3.383233532934131760e-01
3.143712574850299202e-01
2.979041916167664561e-01
2.829341317365269282e-01
2.784431137724550642e-01
2.724550898203592642e-01
2.679640718562874002e-01
2.634730538922155918e-01
2.619760479041916001e-01
2.604790419161676640e-01
2.604790419161676640e-01
2.574850299401197362e-01
2.574850299401197362e-01
2.559880239520958001e-01
2.559880239520958001e-01
2.559880239520958001e-01
2.529940119760479278e-01
2.514970059880239361e-01
2.514970059880239361e-01
2.514970059880239361e-01
2.470059880239521000e-01
2.455089820359281361e-01
2.455089820359281361e-01
2.425149700598802360e-01
2.425149700598802360e-01
2.410179640718562999e-01
2.395209580838323360e-01
2.365269461077844360e-01
2.320359281437125720e-01
2.290419161676646720e-01
2.230538922155688719e-01
2.215568862275449080e-01
2.155688622754491079e-01
2.110778443113772440e-01
2.020958083832335439e-01
1.991017964071856161e-01
1.901197604790419160e-01
1.856287425149700521e-01
1.781437125748502881e-01
1.736526946107784519e-01
1.721556886227544880e-01
1.721556886227544880e-01
1.736526946107784519e-01
1.751497005988023881e-01
1.781437125748502881e-01
1.826347305389221520e-01
1.901197604790419160e-01
2.005988023952095800e-01
2.095808383233532801e-01
2.200598802395209719e-01
2.305389221556886359e-01
2.365269461077844360e-01
2.425149700598802360e-01
2.514970059880239361e-01
2.589820359281437279e-01
2.619760479041916001e-01
2.649700598802395279e-01
2.664670658682634641e-01
2.664670658682634641e-01
2.679640718562874002e-01
2.694610778443113919e-01
2.709580838323353280e-01
2.709580838323353280e-01
2.709580838323353280e-01
2.709580838323353280e-01
2.709580838323353280e-01
2.709580838323353280e-01
2.709580838323353280e-01
2.709580838323353280e-01
2.709580838323353280e-01
2.724550898203592642e-01
2.724550898203592642e-01
2.739520958083832558e-01
2.739520958083832558e-01
2.739520958083832558e-01
2.739520958083832558e-01
2.739520958083832558e-01
2.739520958083832558e-01
2.754491017964071919e-01
2.769461077844311281e-01
2.784431137724550642e-01
2.769461077844311281e-01
2.769461077844311281e-01
2.769461077844311281e-01
2.769461077844311281e-01
2.754491017964071919e-01
2.754491017964071919e-01
2.754491017964071919e-01
2.739520958083832558e-01
2.739520958083832558e-01
2.739520958083832558e-01
2.739520958083832558e-01
2.739520958083832558e-01
2.754491017964071919e-01
2.754491017964071919e-01
2.784431137724550642e-01
2.784431137724550642e-01
2.784431137724550642e-01
2.784431137724550642e-01
2.784431137724550642e-01
2.784431137724550642e-01
2.784431137724550642e-01
2.784431137724550642e-01
2.784431137724550642e-01
2.784431137724550642e-01
2.784431137724550642e-01
2.784431137724550642e-01
2.784431137724550642e-01
2.784431137724550642e-01
2.784431137724550642e-01
2.784431137724550642e-01
2.784431137724550642e-01
2.784431137724550642e-01
2.784431137724550642e-01
2.784431137724550642e-01
2.784431137724550642e-01
2.784431137724550642e-01
2.754491017964071919e-01
2.739520958083832558e-01
2.724550898203592642e-01
2.724550898203592642e-01
2.709580838323353280e-01
2.709580838323353280e-01
2.709580838323353280e-01
2.709580838323353280e-01
2.709580838323353280e-01
2.709580838323353280e-01
2.709580838323353280e-01
2.709580838323353280e-01
2.709580838323353280e-01
2.709580838323353280e-01
2.709580838323353280e-01
2.724550898203592642e-01
2.724550898203592642e-01
2.754491017964071919e-01
2.769461077844311281e-01
2.784431137724550642e-01
2.799401197604790559e-01
2.829341317365269282e-01
2.844311377245509198e-01
2.859281437125748560e-01
2.844311377245509198e-01
2.844311377245509198e-01
2.844311377245509198e-01
2.844311377245509198e-01
2.844311377245509198e-01
2.844311377245509198e-01
2.844311377245509198e-01
2.844311377245509198e-01
2.859281437125748560e-01
2.874251497005987921e-01
2.874251497005987921e-01
2.844311377245509198e-01
2.709580838323353280e-01
2.335329341317365359e-01
1.901197604790419160e-01
1.661676646706586880e-01
9.161676646706586880e-01
9.730538922155688997e-02
1.976047904191616800e-01
2.754491017964071919e-01
3.188622754491017841e-01
4.041916167664670878e-01
4.221556886227544880e-01
3.907185628742514960e-01
3.622754491017964318e-01
3.293413173652694481e-01
3.068862275449101840e-01
2.934131736526945922e-01
2.859281437125748560e-01
2.799401197604790559e-01
2.754491017964071919e-01
2.739520958083832558e-01
2.724550898203592642e-01
2.709580838323353280e-01
2.694610778443113919e-01
2.679640718562874002e-01
2.664670658682634641e-01
2.649700598802395279e-01
2.634730538922155918e-01
2.634730538922155918e-01
2.634730538922155918e-01
2.619760479041916001e-01
2.604790419161676640e-01
2.589820359281437279e-01
2.589820359281437279e-01
2.574850299401197362e-01
2.574850299401197362e-01
2.559880239520958001e-01
2.514970059880239361e-01
2.500000000000000000e-01
2.455089820359281361e-01
2.440119760479041999e-01
2.395209580838323360e-01
2.380239520958083721e-01
2.350299401197604721e-01
2.320359281437125720e-01
2.260479041916167720e-01
2.215568862275449080e-01
2.140718562874251440e-01
2.080838323353293440e-01
2.020958083832335439e-01
1.946107784431137799e-01
1.901197604790419160e-01
1.856287425149700521e-01
1.811377245508982159e-01
1.796407185628742520e-01
1.796407185628742520e-01
1.811377245508982159e-01
1.826347305389221520e-01
1.856287425149700521e-01
1.931137724550898160e-01
1.991017964071856161e-01
2.110778443113772440e-01
2.215568862275449080e-01
2.320359281437125720e-01
2.395209580838323360e-01
2.485029940119760361e-01
2.559880239520958001e-01
2.604790419161676640e-01
2.649700598802395279e-01
2.679640718562874002e-01
2.694610778443113919e-01
2.709580838323353280e-01
2.724550898203592642e-01
2.724550898203592642e-01
2.724550898203592642e-01
2.724550898203592642e-01
2.724550898203592642e-01
2.724550898203592642e-01
2.724550898203592642e-01
2.769461077844311281e-01
2.784431137724550642e-01
2.784431137724550642e-01
2.769461077844311281e-01
2.769461077844311281e-01
2.769461077844311281e-01
2.769461077844311281e-01
2.769461077844311281e-01
2.769461077844311281e-01
2.769461077844311281e-01
2.769461077844311281e-01
2.769461077844311281e-01
2.754491017964071919e-01
2.754491017964071919e-01
2.769461077844311281e-01
2.784431137724550642e-01
2.814371257485029920e-01
2.829341317365269282e-01
2.829341317365269282e-01
2.829341317365269282e-01
2.829341317365269282e-01
2.844311377245509198e-01
2.844311377245509198e-01
2.844311377245509198e-01
2.844311377245509198e-01
2.844311377245509198e-01
2.844311377245509198e-01
2.844311377245509198e-01
2.844311377245509198e-01
2.844311377245509198e-01
2.844311377245509198e-01
2.844311377245509198e-01
2.844311377245509198e-01
2.844311377245509198e-01
2.844311377245509198e-01
2.844311377245509198e-01
2.844311377245509198e-01
2.829341317365269282e-01
2.829341317365269282e-01
2.829341317365269282e-01
2.814371257485029920e-01
2.814371257485029920e-01
2.814371257485029920e-01
2.814371257485029920e-01
2.799401197604790559e-01
2.799401197604790559e-01
2.784431137724550642e-01
2.784431137724550642e-01
2.784431137724550642e-01
2.754491017964071919e-01
2.754491017964071919e-01
2.724550898203592642e-01
2.724550898203592642e-01
2.724550898203592642e-01
2.724550898203592642e-01
2.724550898203592642e-01
2.724550898203592642e-01
2.739520958083832558e-01
2.739520958083832558e-01
2.754491017964071919e-01
2.754491017964071919e-01
2.754491017964071919e-01
2.784431137724550642e-01
2.814371257485029920e-01
2.859281437125748560e-01
2.859281437125748560e-01
2.859281437125748560e-01
2.859281437125748560e-01
2.874251497005987921e-01
2.874251497005987921e-01
2.904191616766467199e-01
2.904191616766467199e-01
2.919161676646706560e-01
2.919161676646706560e-01
2.934131736526945922e-01
2.934131736526945922e-01
2.934131736526945922e-01
2.934131736526945922e-01
2.934131736526945922e-01
2.934131736526945922e-01
2.934131736526945922e-01
2.904191616766467199e-01
2.724550898203592642e-01
2.425149700598802360e-01
2.095808383233532801e-01
1.826347305389221520e-01
1.287425149700598681e-01
7.934131736526946199e-02
1.946107784431137799e-01
2.739520958083832558e-01
3.128742514970059840e-01
3.877245508982035682e-01
4.191616766467065602e-01
3.982035928143712322e-01
3.682634730538922319e-01
3.398203592814371121e-01
