1.288515406162464849e-01
1.288515406162464849e-01
1.351449670777402079e-01
1.414383935392339309e-01
1.477318200007274873e-01
1.540252464622212103e-01
1.603186729237149333e-01
1.666120993852086563e-01
1.729055258467023792e-01
1.791989523081959357e-01
1.854923787696896587e-01
1.917858052311833816e-01
1.980792316926771046e-01
2.043726581541707998e-01
2.106660846156643840e-01
2.169595110771580793e-01
2.232529375386518022e-01
2.295463640001455252e-01
2.358397904616392482e-01
2.421332169231328046e-01
2.484266433846265276e-01
2.547200698461202228e-01
2.610134963076139458e-01
2.673069227691076688e-01
2.736003492306012252e-01
2.798937756920949482e-01
2.861872021535886712e-01
2.924806286150823942e-01
2.987740550765761172e-01
3.050674815380696736e-01
3.113609079995633966e-01
3.176543344610571196e-01
3.239477609225508425e-01
3.302411873840445655e-01
3.365346138455381220e-01
3.428280403070318449e-01
3.491214667685255679e-01
3.554148932300192909e-01
3.617083196915130139e-01
3.680017461530065703e-01
3.742951726145004598e-01
3.805885990759940163e-01
3.868820255374877393e-01
3.931754519989814622e-01
3.994688784604750187e-01
4.057623049219688527e-01
4.120557313834624646e-01
4.183491578449560211e-01
4.246425843064498551e-01
4.309360107679434115e-01
4.372294372294373010e-01
4.435228636909308575e-01
4.498162901524247470e-01
4.561097166139183035e-01
4.624031430754118599e-01
4.686965695369057494e-01
4.749899959983993059e-01
4.812834224598928623e-01
4.875768489213867518e-01
4.938702753828803083e-01
5.001637018443741978e-01
5.064571283058677542e-01
5.127505547673616437e-01
5.190439812288552002e-01
5.253374076903487566e-01
5.316308341518426461e-01
5.379242606133362026e-01
5.442176870748297590e-01
5.505111135363236485e-01
5.568045399978172050e-01
5.630979664593110945e-01
5.693913929208046509e-01
5.756848193822985404e-01
5.819782458437920969e-01
5.882716723052856533e-01
5.945650987667795428e-01
6.008585252282730993e-01
6.071519516897666557e-01
6.134453781512605453e-01
3.949579831932772955e-01
3.921568627450980338e-01
3.921568627450980338e-01
1.736694677871148396e-01
1.736694677871148396e-01
1.736694677871148396e-01
1.736694677871148396e-01
1.736694677871148396e-01
1.736694677871148396e-01
1.736694677871148396e-01
1.736694677871148396e-01
1.736694677871148396e-01
1.736694677871148396e-01
1.736694677871148396e-01
1.736694677871148396e-01
1.736694677871148396e-01
1.736694677871148396e-01
1.736694677871148396e-01
1.736694677871148396e-01
1.736694677871148396e-01
1.736694677871148396e-01
1.736694677871148396e-01
1.736694677871148396e-01
1.736694677871148396e-01
1.736694677871148396e-01
1.736694677871148396e-01
1.736694677871148396e-01
1.736694677871148396e-01
1.736694677871148396e-01
1.736694677871148396e-01
1.736694677871148396e-01
1.736694677871148396e-01
1.736694677871148396e-01
1.736694677871148396e-01
1.736694677871148396e-01
1.736694677871148396e-01
1.736694677871148396e-01
1.736694677871148396e-01
1.736694677871148396e-01
3.921568627450980338e-01
3.921568627450980338e-01
4.033613445378151363e-01
6.022408963585433872e-01
8.515406162464985718e-01
8.515406162464985718e-01
8.515406162464985718e-01
6.442577030812325356e-01
6.470588235294117974e-01
6.498599439775910591e-01
6.526610644257703209e-01
6.470588235294117974e-01
6.470588235294117974e-01
6.414565826330532738e-01
6.414565826330532738e-01
6.442577030812325356e-01
6.470588235294117974e-01
6.470588235294117974e-01
6.442577030812325356e-01
6.442577030812325356e-01
6.414565826330532738e-01
6.386554621848739011e-01
6.330532212885153776e-01
6.330532212885153776e-01
6.302521008403361158e-01
6.330532212885153776e-01
6.330532212885153776e-01
6.330532212885153776e-01
6.330532212885153776e-01
6.358543417366946393e-01
6.358543417366946393e-01
6.358543417366946393e-01
6.386554621848739011e-01
6.386554621848739011e-01
6.358543417366946393e-01
6.302521008403361158e-01
6.218487394957983305e-01
6.190476190476190688e-01
6.218487394957983305e-01
6.218487394957983305e-01
6.246498599439775923e-01
6.218487394957983305e-01
6.218487394957983305e-01
6.190476190476190688e-01
6.190476190476190688e-01
6.218487394957983305e-01
6.218487394957983305e-01
6.246498599439775923e-01
6.302521008403361158e-01
6.358543417366946393e-01
6.358543417366946393e-01
6.386554621848739011e-01
6.442577030812325356e-01
6.442577030812325356e-01
6.414565826330532738e-01
6.358543417366946393e-01
6.358543417366946393e-01
6.386554621848739011e-01
6.330532212885153776e-01
6.274509803921568540e-01
6.274509803921568540e-01
6.106442577030812835e-01
5.826330532212885549e-01
5.350140056022408830e-01
4.873949579831932666e-01
4.537815126050420145e-01
4.789915966386554813e-01
5.602240896358543498e-01
6.190476190476190688e-01
6.694677871148458914e-01
6.946778711484593583e-01
6.834733893557423112e-01
6.778711484593837877e-01
6.638655462184873679e-01
6.610644257703081061e-01
6.498599439775910591e-01
6.498599439775910591e-01
6.498599439775910591e-01
6.498599439775910591e-01
6.470588235294117974e-01
6.526610644257703209e-01
6.526610644257703209e-01
6.526610644257703209e-01
6.526610644257703209e-01
6.498599439775910591e-01
6.470588235294117974e-01
6.414565826330532738e-01
6.330532212885153776e-01
6.330532212885153776e-01
6.330532212885153776e-01
6.302521008403361158e-01
6.274509803921568540e-01
6.302521008403361158e-01
6.330532212885153776e-01
6.330532212885153776e-01
6.302521008403361158e-01
6.302521008403361158e-01
6.302521008403361158e-01
6.302521008403361158e-01
6.302521008403361158e-01
6.274509803921568540e-01
6.246498599439775923e-01
6.162464985994398070e-01
6.078431372549019107e-01
6.050420168067226490e-01
5.994397759103641254e-01
5.994397759103641254e-01
5.938375350140056019e-01
5.938375350140056019e-01
5.882352941176470784e-01
5.798319327731092931e-01
5.742296918767506586e-01
5.714285714285713969e-01
5.714285714285713969e-01
5.630252100840336116e-01
5.602240896358543498e-01
5.518207282913165646e-01
5.490196078431373028e-01
5.462184873949579300e-01
5.490196078431373028e-01
5.546218487394958263e-01
5.602240896358543498e-01
5.686274509803921351e-01
5.798319327731092931e-01
5.882352941176470784e-01
5.938375350140056019e-01
5.966386554621848637e-01
6.022408963585433872e-01
6.078431372549019107e-01
6.162464985994398070e-01
6.218487394957983305e-01
6.274509803921568540e-01
6.302521008403361158e-01
6.302521008403361158e-01
6.330532212885153776e-01
6.330532212885153776e-01
6.358543417366946393e-01
6.358543417366946393e-01
6.302521008403361158e-01
6.246498599439775923e-01
6.218487394957983305e-01
6.274509803921568540e-01
6.302521008403361158e-01
6.330532212885153776e-01
6.302521008403361158e-01
6.302521008403361158e-01
6.330532212885153776e-01
6.330532212885153776e-01
6.274509803921568540e-01
6.246498599439775923e-01
6.330532212885153776e-01
6.330532212885153776e-01
6.358543417366946393e-01
6.358543417366946393e-01
6.358543417366946393e-01
6.386554621848739011e-01
6.330532212885153776e-01
6.274509803921568540e-01
6.218487394957983305e-01
6.190476190476190688e-01
6.162464985994398070e-01
6.190476190476190688e-01
6.274509803921568540e-01
6.330532212885153776e-01
6.330532212885153776e-01
6.274509803921568540e-01
6.302521008403361158e-01
6.330532212885153776e-01
6.330532212885153776e-01
6.330532212885153776e-01
6.330532212885153776e-01
6.358543417366946393e-01
6.358543417366946393e-01
6.386554621848739011e-01
6.386554621848739011e-01
6.302521008403361158e-01
6.302521008403361158e-01
6.246498599439775923e-01
6.274509803921568540e-01
6.302521008403361158e-01
6.330532212885153776e-01
6.330532212885153776e-01
6.330532212885153776e-01
6.358543417366946393e-01
6.358543417366946393e-01
6.386554621848739011e-01
6.386554621848739011e-01
6.386554621848739011e-01
6.386554621848739011e-01
6.386554621848739011e-01
6.386554621848739011e-01
6.386554621848739011e-01
6.386554621848739011e-01
6.386554621848739011e-01
6.386554621848739011e-01
6.442577030812325356e-01
6.470588235294117974e-01
6.470588235294117974e-01
6.386554621848739011e-01
6.302521008403361158e-01
6.162464985994398070e-01
6.134453781512605453e-01
6.190476190476190688e-01
6.190476190476190688e-01
6.218487394957983305e-01
6.274509803921568540e-01
6.302521008403361158e-01
6.358543417366946393e-01
6.358543417366946393e-01
6.330532212885153776e-01
6.330532212885153776e-01
6.330532212885153776e-01
6.330532212885153776e-01
6.302521008403361158e-01
6.274509803921568540e-01
6.218487394957983305e-01
6.246498599439775923e-01
6.330532212885153776e-01
6.386554621848739011e-01
6.470588235294117974e-01
6.386554621848739011e-01
6.274509803921568540e-01
6.106442577030812835e-01
6.106442577030812835e-01
6.190476190476190688e-01
6.246498599439775923e-01
6.330532212885153776e-01
6.358543417366946393e-01
6.414565826330532738e-01
6.470588235294117974e-01
6.470588235294117974e-01
6.470588235294117974e-01
6.442577030812325356e-01
6.442577030812325356e-01
6.442577030812325356e-01
6.386554621848739011e-01
6.246498599439775923e-01
6.162464985994398070e-01
6.022408963585433872e-01
5.798319327731092931e-01
5.434173669467786683e-01
4.957983193277311074e-01
4.453781512605042292e-01
4.537815126050420145e-01
5.322128851540616212e-01
6.078431372549019107e-01
6.498599439775910591e-01
7.030812324929971435e-01
6.946778711484593583e-01
6.862745098039215730e-01
6.778711484593837877e-01
6.666666666666666297e-01
6.554621848739495826e-01
6.498599439775910591e-01
6.498599439775910591e-01
6.442577030812325356e-01
6.414565826330532738e-01
6.414565826330532738e-01
6.414565826330532738e-01
6.386554621848739011e-01
6.386554621848739011e-01
6.386554621848739011e-01
6.358543417366946393e-01
6.358543417366946393e-01
6.358543417366946393e-01
6.358543417366946393e-01
6.330532212885153776e-01
6.330532212885153776e-01
6.330532212885153776e-01
6.358543417366946393e-01
6.358543417366946393e-01
6.386554621848739011e-01
6.386554621848739011e-01
6.386554621848739011e-01
6.358543417366946393e-01
6.330532212885153776e-01
6.246498599439775923e-01
6.190476190476190688e-01
6.162464985994398070e-01
6.106442577030812835e-01
6.022408963585433872e-01
6.078431372549019107e-01
6.106442577030812835e-01
6.106442577030812835e-01
6.050420168067226490e-01
5.966386554621848637e-01
5.910364145658263402e-01
5.798319327731092931e-01
5.770308123249299204e-01
5.714285714285713969e-01
5.658263305322128733e-01
5.658263305322128733e-01
5.630252100840336116e-01
5.574229691876750881e-01
5.546218487394958263e-01
5.518207282913165646e-01
5.518207282913165646e-01
5.546218487394958263e-01
5.546218487394958263e-01
5.602240896358543498e-01
5.602240896358543498e-01
5.658263305322128733e-01
5.770308123249299204e-01
5.854341736694678167e-01
5.910364145658263402e-01
5.938375350140056019e-01
5.938375350140056019e-01
5.994397759103641254e-01
6.050420168067226490e-01
6.134453781512605453e-01
6.246498599439775923e-01
6.274509803921568540e-01
6.330532212885153776e-01
6.414565826330532738e-01
6.442577030812325356e-01
6.470588235294117974e-01
6.456582633053221665e-01
6.442577030812325356e-01
6.442577030812325356e-01
6.414565826330532738e-01
6.414565826330532738e-01
6.386554621848739011e-01
6.386554621848739011e-01
6.386554621848739011e-01
6.358543417366946393e-01
6.358543417366946393e-01
6.330532212885153776e-01
6.330532212885153776e-01
6.358543417366946393e-01
6.414565826330532738e-01
6.442577030812325356e-01
6.442577030812325356e-01
6.442577030812325356e-01
6.414565826330532738e-01
6.358543417366946393e-01
6.358543417366946393e-01
6.358543417366946393e-01
6.274509803921568540e-01
6.246498599439775923e-01
6.218487394957983305e-01
6.246498599439775923e-01
6.302521008403361158e-01
6.330532212885153776e-01
6.358543417366946393e-01
6.302521008403361158e-01
6.302521008403361158e-01
6.274509803921568540e-01
6.330532212885153776e-01
6.358543417366946393e-01
6.414565826330532738e-01
6.414565826330532738e-01
6.386554621848739011e-01
6.386554621848739011e-01
6.386554621848739011e-01
6.386554621848739011e-01
6.372549019607842702e-01
6.358543417366946393e-01
6.358543417366946393e-01
6.386554621848739011e-01
6.386554621848739011e-01
6.414565826330532738e-01
6.386554621848739011e-01
6.330532212885153776e-01
6.274509803921568540e-01
6.274509803921568540e-01
6.246498599439775923e-01
6.218487394957983305e-01
6.302521008403361158e-01
6.330532212885153776e-01
6.274509803921568540e-01
6.246498599439775923e-01
6.302521008403361158e-01
6.330532212885153776e-01
6.330532212885153776e-01
6.330532212885153776e-01
6.330532212885153776e-01
6.358543417366946393e-01
6.358543417366946393e-01
6.330532212885153776e-01
6.358543417366946393e-01
6.358543417366946393e-01
6.330532212885153776e-01
6.330532212885153776e-01
6.302521008403361158e-01
6.302521008403361158e-01
6.302521008403361158e-01
6.274509803921568540e-01
6.330532212885153776e-01
6.358543417366946393e-01
6.386554621848739011e-01
6.358543417366946393e-01
6.330532212885153776e-01
6.330532212885153776e-01
6.330532212885153776e-01
6.330532212885153776e-01
6.302521008403361158e-01
6.274509803921568540e-01
6.302521008403361158e-01
6.302521008403361158e-01
6.246498599439775923e-01
6.246498599439775923e-01
6.246498599439775923e-01
6.246498599439775923e-01
6.246498599439775923e-01
6.246498599439775923e-01
6.190476190476190688e-01
6.078431372549019107e-01
5.994397759103641254e-01
6.050420168067226490e-01
6.190476190476190688e-01
6.218487394957983305e-01
6.218487394957983305e-01
6.106442577030812835e-01
6.106442577030812835e-01
6.134453781512605453e-01
6.218487394957983305e-01
6.358543417366946393e-01
6.386554621848739011e-01
6.470588235294117974e-01
6.470588235294117974e-01
6.498599439775910591e-01
6.442577030812325356e-01
6.414565826330532738e-01
6.498599439775910591e-01
6.498599439775910591e-01
6.358543417366946393e-01
6.302521008403361158e-01
6.050420168067226490e-01
5.826330532212885549e-01
5.462184873949579300e-01
4.817927170868347431e-01
4.481792717086834910e-01
4.565826330532212762e-01
5.378151260504201447e-01
5.994397759103641254e-01
6.470588235294117974e-01
7.114845938375350398e-01
6.974789915966386200e-01
6.834733893557423112e-01
6.750700280112045260e-01
6.610644257703081061e-01
6.498599439775910591e-01
6.442577030812325356e-01
6.414565826330532738e-01
6.442577030812325356e-01
6.470588235294117974e-01
6.470588235294117974e-01
6.498599439775910591e-01
6.498599439775910591e-01
6.526610644257703209e-01
6.526610644257703209e-01
6.470588235294117974e-01
6.414565826330532738e-01
6.358543417366946393e-01
6.330532212885153776e-01
6.330532212885153776e-01
6.358543417366946393e-01
6.358543417366946393e-01
6.358543417366946393e-01
6.386554621848739011e-01
6.386554621848739011e-01
6.358543417366946393e-01
6.302521008403361158e-01
6.190476190476190688e-01
6.134453781512605453e-01
6.106442577030812835e-01
6.078431372549019107e-01
6.078431372549019107e-01
6.050420168067226490e-01
6.050420168067226490e-01
6.050420168067226490e-01
5.994397759103641254e-01
5.938375350140056019e-01
5.882352941176470784e-01
5.854341736694678167e-01
5.826330532212885549e-01
5.826330532212885549e-01
5.798319327731092931e-01
5.714285714285713969e-01
5.602240896358543498e-01
5.546218487394958263e-01
5.546218487394958263e-01
5.518207282913165646e-01
5.490196078431373028e-01
5.490196078431373028e-01
5.546218487394958263e-01
5.574229691876750881e-01
5.546218487394958263e-01
5.602240896358543498e-01
5.602240896358543498e-01
6.162464985994398070e-01
6.162464985994398070e-01
6.162464985994398070e-01
6.162464985994398070e-01
6.162464985994398070e-01
6.162464985994398070e-01
7.507002801120448154e-01
8.767507002801120386e-01
8.739495798319327768e-01
8.627450980392157298e-01
8.627450980392157298e-01
8.487394957983193100e-01
8.627450980392157298e-01
8.627450980392157298e-01
8.403361344537815247e-01
8.515406162464985718e-01
8.543417366946778335e-01
8.655462184873949916e-01
8.711484593837535151e-01
8.767507002801120386e-01
5.854341736694678167e-01
5.826330532212885549e-01
5.882352941176470784e-01
8.011204481792717491e-01
8.067226890756302726e-01
8.151260504201680579e-01
8.347338935574230012e-01
8.487394957983193100e-01
8.655462184873949916e-01
8.795518207282913004e-01
8.963585434173669819e-01
9.019607843137255054e-01
9.019607843137255054e-01
8.935574229691877202e-01
8.823529411764705621e-01
8.711484593837535151e-01
8.487394957983193100e-01
8.347338935574230012e-01
8.207282913165265814e-01
8.123249299719887961e-01
8.067226890756302726e-01
8.011204481792717491e-01
6.022408963585433872e-01
5.966386554621848637e-01
5.938375350140056019e-01
8.067226890756302726e-01
8.543417366946778335e-01
8.487394957983193100e-01
8.487394957983193100e-01
8.011204481792717491e-01
5.938375350140056019e-01
6.946778711484593583e-01
8.039215686274510109e-01
8.039215686274510109e-01
8.095238095238095344e-01
8.319327731092437395e-01
8.515406162464985718e-01
8.403361344537815247e-01
8.431372549019607865e-01
8.431372549019607865e-01
8.991596638655462437e-01
9.075630252100840289e-01
5.798319327731092931e-01
5.854341736694678167e-01
5.826330532212885549e-01
5.770308123249299204e-01
5.742296918767506586e-01
5.742296918767506586e-01
5.742296918767506586e-01
5.742296918767506586e-01
5.770308123249299204e-01
5.770308123249299204e-01
5.770308123249299204e-01
5.770308123249299204e-01
5.770308123249299204e-01
5.798319327731092931e-01
5.798319327731092931e-01
5.798319327731092931e-01
5.770308123249299204e-01
5.770308123249299204e-01
5.770308123249299204e-01
5.714285714285713969e-01
5.686274509803921351e-01
5.658263305322128733e-01
5.658263305322128733e-01
5.714285714285713969e-01
5.742296918767506586e-01
5.714285714285713969e-01
5.658263305322128733e-01
5.658263305322128733e-01
5.658263305322128733e-01
5.714285714285713969e-01
5.714285714285713969e-01
5.798319327731092931e-01
5.854341736694678167e-01
5.938375350140056019e-01
5.994397759103641254e-01
6.022408963585433872e-01
6.106442577030812835e-01
6.106442577030812835e-01
6.106442577030812835e-01
6.106442577030812835e-01
6.134453781512605453e-01
6.106442577030812835e-01
6.078431372549019107e-01
6.050420168067226490e-01
5.966386554621848637e-01
5.882352941176470784e-01
5.798319327731092931e-01
5.714285714285713969e-01
5.714285714285713969e-01
5.686274509803921351e-01
5.686274509803921351e-01
5.658263305322128733e-01
5.658263305322128733e-01
5.658263305322128733e-01
5.658263305322128733e-01
5.658263305322128733e-01
5.686274509803921351e-01
5.686274509803921351e-01
5.686274509803921351e-01
5.854341736694678167e-01
6.218487394957983305e-01
7.030812324929971435e-01
7.703081232492997588e-01
8.655462184873949916e-01
9.075630252100840289e-01
8.403361344537815247e-01
7.282913165266106104e-01
6.638655462184873679e-01
5.854341736694678167e-01
5.630252100840336116e-01
5.490196078431373028e-01
5.546218487394958263e-01
5.630252100840336116e-01
5.686274509803921351e-01
5.742296918767506586e-01
5.826330532212885549e-01
5.854341736694678167e-01
5.826330532212885549e-01
5.826330532212885549e-01
5.742296918767506586e-01
5.742296918767506586e-01
5.770308123249299204e-01
5.798319327731092931e-01
5.854341736694678167e-01
5.854341736694678167e-01
5.882352941176470784e-01
5.910364145658263402e-01
5.938375350140056019e-01
5.938375350140056019e-01
5.910364145658263402e-01
5.938375350140056019e-01
5.966386554621848637e-01
5.994397759103641254e-01
6.050420168067226490e-01
6.106442577030812835e-01
6.134453781512605453e-01
6.134453781512605453e-01
6.246498599439775923e-01
6.302521008403361158e-01
6.358543417366946393e-01
6.358543417366946393e-01
6.386554621848739011e-01
6.386554621848739011e-01
6.414565826330532738e-01
6.498599439775910591e-01
6.638655462184873679e-01
6.694677871148458914e-01
6.750700280112045260e-01
6.834733893557423112e-01
6.918767507002800965e-01
7.002801120448178818e-01
7.114845938375350398e-01
7.226890756302520868e-01
7.310924369747898721e-01
7.366946778711485067e-01
7.394957983193277684e-01
7.450980392156862919e-01
7.478991596638655537e-01
7.394957983193277684e-01
7.310924369747898721e-01
7.254901960784313486e-01
7.198879551820728251e-01
7.002801120448178818e-01
6.946778711484593583e-01
6.778711484593837877e-01
6.722689075630252642e-01
6.554621848739495826e-01
6.470588235294117974e-01
6.386554621848739011e-01
6.302521008403361158e-01
6.274509803921568540e-01
6.246498599439775923e-01
6.218487394957983305e-01
6.218487394957983305e-01
6.218487394957983305e-01
6.218487394957983305e-01
6.190476190476190688e-01
6.162464985994398070e-01
6.162464985994398070e-01
6.162464985994398070e-01
6.134453781512605453e-01
6.134453781512605453e-01
6.106442577030812835e-01
6.106442577030812835e-01
6.134453781512605453e-01
6.134453781512605453e-01
6.134453781512605453e-01
6.106442577030812835e-01
6.106442577030812835e-01
6.106442577030812835e-01
6.106442577030812835e-01
6.106442577030812835e-01
6.106442577030812835e-01
6.078431372549019107e-01
6.106442577030812835e-01
6.106442577030812835e-01
6.106442577030812835e-01
6.078431372549019107e-01
6.078431372549019107e-01
6.078431372549019107e-01
6.078431372549019107e-01
6.078431372549019107e-01
6.078431372549019107e-01
6.078431372549019107e-01
6.078431372549019107e-01
6.078431372549019107e-01
6.106442577030812835e-01
6.106442577030812835e-01
6.078431372549019107e-01
6.106442577030812835e-01
6.106442577030812835e-01
6.106442577030812835e-01
6.078431372549019107e-01
6.050420168067226490e-01
6.050420168067226490e-01
6.050420168067226490e-01
6.050420168067226490e-01
6.078431372549019107e-01
6.106442577030812835e-01
6.134453781512605453e-01
6.162464985994398070e-01
6.078431372549019107e-01
5.994397759103641254e-01
5.938375350140056019e-01
5.938375350140056019e-01
5.966386554621848637e-01
5.966386554621848637e-01
5.966386554621848637e-01
5.966386554621848637e-01
5.966386554621848637e-01
5.994397759103641254e-01
5.994397759103641254e-01
5.994397759103641254e-01
5.994397759103641254e-01
5.966386554621848637e-01
5.938375350140056019e-01
5.966386554621848637e-01
5.994397759103641254e-01
6.050420168067226490e-01
6.078431372549019107e-01
6.106442577030812835e-01
6.106442577030812835e-01
6.162464985994398070e-01
6.190476190476190688e-01
6.218487394957983305e-01
6.274509803921568540e-01
6.386554621848739011e-01
6.414565826330532738e-01
6.442577030812325356e-01
6.386554621848739011e-01
6.302521008403361158e-01
6.274509803921568540e-01
6.218487394957983305e-01
6.218487394957983305e-01
6.162464985994398070e-01
6.078431372549019107e-01
6.050420168067226490e-01
6.022408963585433872e-01
6.050420168067226490e-01
6.050420168067226490e-01
6.050420168067226490e-01
6.050420168067226490e-01
6.050420168067226490e-01
6.050420168067226490e-01
6.050420168067226490e-01
6.050420168067226490e-01
6.050420168067226490e-01
6.106442577030812835e-01
6.022408963585433872e-01
6.134453781512605453e-01
6.526610644257703209e-01
7.254901960784313486e-01
8.039215686274510109e-01
8.963585434173669819e-01
9.327731092436974958e-01
8.347338935574230012e-01
7.563025210084033390e-01
6.526610644257703209e-01
6.050420168067226490e-01
5.798319327731092931e-01
5.658263305322128733e-01
5.770308123249299204e-01
5.854341736694678167e-01
5.882352941176470784e-01
5.938375350140056019e-01
5.938375350140056019e-01
5.966386554621848637e-01
5.994397759103641254e-01
6.022408963585433872e-01
6.022408963585433872e-01
6.022408963585433872e-01
6.050420168067226490e-01
6.078431372549019107e-01
6.106442577030812835e-01
6.106442577030812835e-01
6.162464985994398070e-01
6.162464985994398070e-01
6.162464985994398070e-01
6.190476190476190688e-01
6.246498599439775923e-01
6.218487394957983305e-01
6.218487394957983305e-01
6.246498599439775923e-01
6.302521008403361158e-01
6.386554621848739011e-01
6.386554621848739011e-01
6.386554621848739011e-01
6.386554621848739011e-01
6.442577030812325356e-01
6.470588235294117974e-01
6.498599439775910591e-01
6.610644257703081061e-01
6.610644257703081061e-01
6.638655462184873679e-01
6.666666666666666297e-01
6.750700280112045260e-01
6.834733893557423112e-01
6.974789915966386200e-01
7.114845938375350398e-01
7.226890756302520868e-01
7.338935574229691339e-01
7.394957983193277684e-01
7.394957983193277684e-01
7.394957983193277684e-01
7.422969187675070302e-01
7.478991596638655537e-01
7.535014005602240772e-01
7.535014005602240772e-01
7.422969187675070302e-01
7.338935574229691339e-01
7.226890756302520868e-01
7.114845938375350398e-01
7.002801120448178818e-01
6.862745098039215730e-01
6.750700280112045260e-01
6.610644257703081061e-01
6.498599439775910591e-01
6.470588235294117974e-01
6.386554621848739011e-01
6.302521008403361158e-01
6.246498599439775923e-01
6.190476190476190688e-01
6.162464985994398070e-01
6.162464985994398070e-01
6.134453781512605453e-01
6.134453781512605453e-01
6.134453781512605453e-01
6.162464985994398070e-01
6.162464985994398070e-01
6.106442577030812835e-01
6.078431372549019107e-01
6.022408963585433872e-01
6.050420168067226490e-01
6.078431372549019107e-01
6.078431372549019107e-01
6.134453781512605453e-01
6.162464985994398070e-01
6.274509803921568540e-01
6.274509803921568540e-01
6.358543417366946393e-01
6.330532212885153776e-01
6.274509803921568540e-01
6.218487394957983305e-01
6.190476190476190688e-01
6.246498599439775923e-01
6.302521008403361158e-01
6.246498599439775923e-01
6.218487394957983305e-01
6.190476190476190688e-01
6.190476190476190688e-01
6.162464985994398070e-01
6.162464985994398070e-01
6.162464985994398070e-01
6.218487394957983305e-01
6.246498599439775923e-01
6.246498599439775923e-01
6.218487394957983305e-01
6.246498599439775923e-01
6.302521008403361158e-01
6.330532212885153776e-01
6.302521008403361158e-01
6.274509803921568540e-01
6.274509803921568540e-01
6.246498599439775923e-01
6.218487394957983305e-01
6.218487394957983305e-01
6.190476190476190688e-01
6.162464985994398070e-01
6.134453781512605453e-01
6.162464985994398070e-01
6.218487394957983305e-01
6.246498599439775923e-01
6.190476190476190688e-01
6.134453781512605453e-01
6.190476190476190688e-01
6.246498599439775923e-01
6.302521008403361158e-01
6.274509803921568540e-01
6.218487394957983305e-01
6.190476190476190688e-01
6.190476190476190688e-01
6.190476190476190688e-01
6.162464985994398070e-01
6.162464985994398070e-01
6.302521008403361158e-01
6.330532212885153776e-01
6.414565826330532738e-01
6.330532212885153776e-01
6.302521008403361158e-01
6.414565826330532738e-01
6.470588235294117974e-01
6.582633053221288444e-01
6.498599439775910591e-01
6.414565826330532738e-01
6.358543417366946393e-01
6.274509803921568540e-01
6.218487394957983305e-01
6.190476190476190688e-01
6.162464985994398070e-01
6.162464985994398070e-01
6.106442577030812835e-01
6.022408963585433872e-01
5.938375350140056019e-01
5.938375350140056019e-01
5.882352941176470784e-01
5.882352941176470784e-01
5.910364145658263402e-01
5.966386554621848637e-01
6.050420168067226490e-01
6.078431372549019107e-01
6.106442577030812835e-01
6.050420168067226490e-01
6.134453781512605453e-01
6.330532212885153776e-01
7.002801120448178818e-01
7.899159663865545911e-01
8.627450980392157298e-01
9.467787114845938046e-01
9.019607843137255054e-01
8.179271708683473197e-01
7.338935574229691339e-01
6.442577030812325356e-01
6.162464985994398070e-01
6.022408963585433872e-01
5.966386554621848637e-01
5.938375350140056019e-01
5.966386554621848637e-01
5.966386554621848637e-01
5.938375350140056019e-01
5.910364145658263402e-01
5.910364145658263402e-01
5.910364145658263402e-01
5.994397759103641254e-01
6.022408963585433872e-01
6.050420168067226490e-01
6.050420168067226490e-01
5.994397759103641254e-01
5.994397759103641254e-01
6.050420168067226490e-01
6.134453781512605453e-01
6.162464985994398070e-01
6.134453781512605453e-01
6.106442577030812835e-01
6.106442577030812835e-01
6.106442577030812835e-01
6.162464985994398070e-01
6.218487394957983305e-01
6.274509803921568540e-01
6.274509803921568540e-01
6.330532212885153776e-01
6.162464985994398070e-01
6.162464985994398070e-01
6.162464985994398070e-01
6.162464985994398070e-01
6.218487394957983305e-01
6.246498599439775923e-01
8.095238095238095344e-01
8.179271708683473197e-01
8.319327731092437395e-01
8.459383753501400482e-01
8.571428571428570953e-01
8.711484593837535151e-01
8.879551820728290856e-01
8.991596638655462437e-01
9.047619047619047672e-01
8.991596638655462437e-01
8.907563025210084584e-01
8.711484593837535151e-01
8.571428571428570953e-01
8.431372549019607865e-01
8.263305322128851049e-01
8.123249299719887961e-01
8.067226890756302726e-01
7.058823529411765163e-01
5.994397759103641254e-01
5.994397759103641254e-01
5.938375350140056019e-01
8.123249299719887961e-01
8.151260504201680579e-01
8.095238095238095344e-01
8.095238095238095344e-01
8.067226890756302726e-01
8.515406162464985718e-01
8.543417366946778335e-01
8.515406162464985718e-01
8.403361344537815247e-01
6.050420168067226490e-01
7.563025210084033390e-01
7.563025210084033390e-01
9.075630252100840289e-01
7.563025210084033390e-01
5.966386554621848637e-01
5.966386554621848637e-01
5.966386554621848637e-01
5.938375350140056019e-01
5.938375350140056019e-01
5.938375350140056019e-01
5.938375350140056019e-01
5.966386554621848637e-01
5.966386554621848637e-01
5.966386554621848637e-01
5.966386554621848637e-01
5.966386554621848637e-01
5.966386554621848637e-01
5.966386554621848637e-01
5.966386554621848637e-01
5.966386554621848637e-01
5.966386554621848637e-01
5.938375350140056019e-01
5.938375350140056019e-01
5.966386554621848637e-01
5.966386554621848637e-01
5.966386554621848637e-01
5.966386554621848637e-01
5.966386554621848637e-01
5.966386554621848637e-01
5.966386554621848637e-01
5.966386554621848637e-01
5.966386554621848637e-01
5.966386554621848637e-01
5.966386554621848637e-01
5.966386554621848637e-01
5.966386554621848637e-01
5.966386554621848637e-01
5.966386554621848637e-01
5.994397759103641254e-01
5.994397759103641254e-01
5.994397759103641254e-01
5.994397759103641254e-01
5.994397759103641254e-01
5.994397759103641254e-01
5.966386554621848637e-01
5.910364145658263402e-01
5.910364145658263402e-01
5.910364145658263402e-01
5.910364145658263402e-01
5.910364145658263402e-01
5.910364145658263402e-01
5.882352941176470784e-01
5.882352941176470784e-01
5.882352941176470784e-01
5.882352941176470784e-01
5.882352941176470784e-01
5.910364145658263402e-01
5.910364145658263402e-01
5.910364145658263402e-01
5.910364145658263402e-01
5.910364145658263402e-01
5.938375350140056019e-01
5.938375350140056019e-01
5.938375350140056019e-01
5.938375350140056019e-01
5.938375350140056019e-01
5.938375350140056019e-01
5.938375350140056019e-01
5.938375350140056019e-01
5.938375350140056019e-01
5.882352941176470784e-01
5.826330532212885549e-01
5.770308123249299204e-01
5.770308123249299204e-01
5.770308123249299204e-01
5.798319327731092931e-01
5.798319327731092931e-01
5.854341736694678167e-01
5.910364145658263402e-01
5.994397759103641254e-01
6.050420168067226490e-01
6.078431372549019107e-01
6.078431372549019107e-01
6.106442577030812835e-01
6.134453781512605453e-01
6.106442577030812835e-01
6.106442577030812835e-01
6.134453781512605453e-01
6.134453781512605453e-01
6.162464985994398070e-01
6.162464985994398070e-01
6.134453781512605453e-01
6.106442577030812835e-01
6.106442577030812835e-01
6.078431372549019107e-01
6.050420168067226490e-01
6.050420168067226490e-01
6.022408963585433872e-01
5.994397759103641254e-01
5.882352941176470784e-01
5.714285714285713969e-01
5.490196078431373028e-01
5.994397759103641254e-01
6.946778711484593583e-01
7.815126050420168058e-01
8.963585434173669819e-01
9.803921568627450567e-01
1.000000000000000000e+00
9.579831932773109626e-01
8.935574229691877202e-01
8.151260504201680579e-01
7.647058823529411242e-01
7.114845938375350398e-01
6.694677871148458914e-01
6.386554621848739011e-01
6.246498599439775923e-01
6.218487394957983305e-01
6.162464985994398070e-01
6.106442577030812835e-01
6.106442577030812835e-01
6.078431372549019107e-01
6.078431372549019107e-01
6.078431372549019107e-01
6.078431372549019107e-01
6.078431372549019107e-01
6.078431372549019107e-01
6.078431372549019107e-01
6.078431372549019107e-01
6.078431372549019107e-01
6.078431372549019107e-01
6.078431372549019107e-01
6.078431372549019107e-01
6.078431372549019107e-01
6.106442577030812835e-01
6.106442577030812835e-01
6.106442577030812835e-01
6.134453781512605453e-01
6.134453781512605453e-01
6.162464985994398070e-01
6.162464985994398070e-01
6.162464985994398070e-01
6.190476190476190688e-01
6.190476190476190688e-01
6.218487394957983305e-01
6.218487394957983305e-01
6.218487394957983305e-01
6.246498599439775923e-01
6.274509803921568540e-01
6.274509803921568540e-01
6.274509803921568540e-01
6.274509803921568540e-01
6.274509803921568540e-01
6.302521008403361158e-01
6.302521008403361158e-01
6.302521008403361158e-01
6.302521008403361158e-01
6.274509803921568540e-01
6.274509803921568540e-01
6.246498599439775923e-01
6.218487394957983305e-01
6.190476190476190688e-01
6.162464985994398070e-01
6.162464985994398070e-01
6.134453781512605453e-01
6.134453781512605453e-01
6.106442577030812835e-01
6.106442577030812835e-01
6.106442577030812835e-01
6.106442577030812835e-01
6.078431372549019107e-01
6.078431372549019107e-01
6.078431372549019107e-01
6.078431372549019107e-01
6.078431372549019107e-01
6.050420168067226490e-01
6.050420168067226490e-01
6.050420168067226490e-01
6.050420168067226490e-01
6.050420168067226490e-01
6.050420168067226490e-01
6.050420168067226490e-01
6.050420168067226490e-01
6.050420168067226490e-01
6.050420168067226490e-01
6.050420168067226490e-01
6.050420168067226490e-01
6.050420168067226490e-01
6.050420168067226490e-01
6.050420168067226490e-01
6.050420168067226490e-01
6.050420168067226490e-01
6.050420168067226490e-01
6.050420168067226490e-01
6.050420168067226490e-01
6.050420168067226490e-01
6.050420168067226490e-01
6.050420168067226490e-01
6.050420168067226490e-01
6.050420168067226490e-01
6.050420168067226490e-01
6.050420168067226490e-01
6.078431372549019107e-01
6.078431372549019107e-01
6.078431372549019107e-01
6.078431372549019107e-01
6.078431372549019107e-01
6.078431372549019107e-01
6.078431372549019107e-01
6.078431372549019107e-01
6.078431372549019107e-01
6.078431372549019107e-01
6.106442577030812835e-01
6.106442577030812835e-01
6.106442577030812835e-01
6.134453781512605453e-01
6.134453781512605453e-01
6.134453781512605453e-01
6.162464985994398070e-01
6.162464985994398070e-01
6.162464985994398070e-01
6.190476190476190688e-01
6.190476190476190688e-01
6.190476190476190688e-01
6.190476190476190688e-01
6.190476190476190688e-01
6.218487394957983305e-01
6.218487394957983305e-01
6.218487394957983305e-01
6.246498599439775923e-01
6.246498599439775923e-01
6.218487394957983305e-01
6.218487394957983305e-01
6.218487394957983305e-01
6.190476190476190688e-01
6.190476190476190688e-01
6.162464985994398070e-01
6.162464985994398070e-01
6.162464985994398070e-01
6.134453781512605453e-01
6.106442577030812835e-01
6.106442577030812835e-01
6.106442577030812835e-01
6.078431372549019107e-01
6.078431372549019107e-01
6.078431372549019107e-01
6.078431372549019107e-01
6.078431372549019107e-01
6.078431372549019107e-01
6.078431372549019107e-01
6.078431372549019107e-01
6.078431372549019107e-01
6.078431372549019107e-01
6.106442577030812835e-01
6.162464985994398070e-01
6.162464985994398070e-01
6.218487394957983305e-01
6.274509803921568540e-01
6.274509803921568540e-01
6.274509803921568540e-01
6.246498599439775923e-01
6.246498599439775923e-01
6.218487394957983305e-01
6.218487394957983305e-01
6.190476190476190688e-01
6.162464985994398070e-01
6.106442577030812835e-01
6.050420168067226490e-01
5.994397759103641254e-01
5.994397759103641254e-01
5.994397759103641254e-01
5.966386554621848637e-01
6.022408963585433872e-01
6.134453781512605453e-01
6.190476190476190688e-01
6.246498599439775923e-01
6.246498599439775923e-01
6.302521008403361158e-01
6.358543417366946393e-01
6.386554621848739011e-01
6.386554621848739011e-01
6.358543417366946393e-01
6.344537815126050084e-01
6.330532212885153776e-01
6.330532212885153776e-01
6.302521008403361158e-01
6.302521008403361158e-01
6.302521008403361158e-01
6.274509803921568540e-01
6.274509803921568540e-01
6.274509803921568540e-01
6.274509803921568540e-01
6.246498599439775923e-01
6.162464985994398070e-01
5.910364145658263402e-01
5.742296918767506586e-01
5.630252100840336116e-01
6.442577030812325356e-01
7.310924369747898721e-01
8.039215686274510109e-01
9.271708683473389723e-01
9.887955182072829530e-01
9.775910364145657949e-01
9.327731092436974958e-01
8.487394957983193100e-01
7.983193277310924874e-01
7.394957983193277684e-01
6.890756302521008347e-01
6.638655462184873679e-01
6.442577030812325356e-01
6.302521008403361158e-01
6.274509803921568540e-01
6.218487394957983305e-01
6.218487394957983305e-01
6.218487394957983305e-01
6.190476190476190688e-01
6.190476190476190688e-01
6.190476190476190688e-01
6.190476190476190688e-01
6.162464985994398070e-01
6.162464985994398070e-01
6.162464985994398070e-01
6.134453781512605453e-01
6.106442577030812835e-01
6.078431372549019107e-01
6.078431372549019107e-01
6.078431372549019107e-01
6.078431372549019107e-01
6.106442577030812835e-01
6.106442577030812835e-01
6.106442577030812835e-01
6.106442577030812835e-01
6.106442577030812835e-01
6.106442577030812835e-01
6.134453781512605453e-01
6.134453781512605453e-01
6.162464985994398070e-01
6.162464985994398070e-01
6.162464985994398070e-01
6.162464985994398070e-01
6.190476190476190688e-01
6.190476190476190688e-01
6.218487394957983305e-01
6.246498599439775923e-01
6.302521008403361158e-01
6.330532212885153776e-01
6.302521008403361158e-01
6.302521008403361158e-01
6.274509803921568540e-01
6.274509803921568540e-01
6.246498599439775923e-01
6.246498599439775923e-01
6.218487394957983305e-01
6.218487394957983305e-01
6.190476190476190688e-01
6.190476190476190688e-01
6.162464985994398070e-01
6.162464985994398070e-01
6.162464985994398070e-01
6.162464985994398070e-01
6.162464985994398070e-01
6.148459383753501761e-01
6.134453781512605453e-01
6.134453781512605453e-01
6.134453781512605453e-01
6.134453781512605453e-01
6.134453781512605453e-01
6.162464985994398070e-01
6.162464985994398070e-01
6.162464985994398070e-01
6.162464985994398070e-01
6.162464985994398070e-01
6.162464985994398070e-01
6.162464985994398070e-01
6.162464985994398070e-01
6.162464985994398070e-01
6.162464985994398070e-01
6.162464985994398070e-01
6.162464985994398070e-01
6.190476190476190688e-01
6.190476190476190688e-01
6.218487394957983305e-01
6.218487394957983305e-01
6.246498599439775923e-01
6.246498599439775923e-01
6.274509803921568540e-01
6.274509803921568540e-01
6.274509803921568540e-01
6.246498599439775923e-01
6.246498599439775923e-01
6.246498599439775923e-01
6.246498599439775923e-01
6.246498599439775923e-01
6.246498599439775923e-01
6.246498599439775923e-01
6.246498599439775923e-01
6.246498599439775923e-01
6.246498599439775923e-01
6.274509803921568540e-01
6.274509803921568540e-01
6.274509803921568540e-01
6.274509803921568540e-01
6.274509803921568540e-01
6.274509803921568540e-01
6.274509803921568540e-01
6.302521008403361158e-01
6.330532212885153776e-01
6.330532212885153776e-01
6.358543417366946393e-01
6.358543417366946393e-01
6.358543417366946393e-01
6.358543417366946393e-01
6.358543417366946393e-01
6.358543417366946393e-01
6.358543417366946393e-01
6.358543417366946393e-01
6.358543417366946393e-01
6.358543417366946393e-01
6.358543417366946393e-01
6.358543417366946393e-01
6.358543417366946393e-01
6.358543417366946393e-01
6.358543417366946393e-01
6.330532212885153776e-01
6.330532212885153776e-01
6.330532212885153776e-01
6.330532212885153776e-01
6.330532212885153776e-01
6.330532212885153776e-01
6.330532212885153776e-01
6.302521008403361158e-01
6.302521008403361158e-01
6.274509803921568540e-01
6.274509803921568540e-01
6.274509803921568540e-01
6.274509803921568540e-01
6.274509803921568540e-01
6.246498599439775923e-01
6.246498599439775923e-01
6.246498599439775923e-01
6.190476190476190688e-01
6.218487394957983305e-01
6.218487394957983305e-01
6.218487394957983305e-01
6.218487394957983305e-01
6.218487394957983305e-01
6.190476190476190688e-01
6.190476190476190688e-01
6.190476190476190688e-01
6.190476190476190688e-01
6.190476190476190688e-01
6.162464985994398070e-01
6.134453781512605453e-01
6.106442577030812835e-01
6.078431372549019107e-01
6.022408963585433872e-01
6.162464985994398070e-01
6.162464985994398070e-01
6.162464985994398070e-01
6.162464985994398070e-01
6.162464985994398070e-01
6.274509803921568540e-01
8.095238095238095344e-01
8.179271708683473197e-01
8.319327731092437395e-01
8.431372549019607865e-01
8.571428571428570953e-01
8.767507002801120386e-01
8.907563025210084584e-01
8.935574229691877202e-01
7.983193277310924874e-01
8.991596638655462437e-01
8.907563025210084584e-01
8.711484593837535151e-01
8.571428571428570953e-01
8.431372549019607865e-01
8.263305322128851049e-01
8.123249299719887961e-01
8.067226890756302726e-01
7.507002801120448154e-01
6.862745098039215730e-01
6.722689075630252642e-01
6.386554621848739011e-01
5.462184873949579300e-01
4.313725490196078649e-01
2.997198879551820627e-01
1.428571428571428492e-01
1.260504201680672232e-01
2.913165266106442775e-01
4.957983193277311074e-01
6.106442577030812835e-01
8.543417366946778335e-01
8.459383753501400482e-01
8.459383753501400482e-01
7.675070028011204970e-01
7.170868347338935633e-01
7.086834733893557781e-01
7.927170868347338528e-01
6.946778711484593583e-01
6.946778711484593583e-01
6.946778711484593583e-01
6.918767507002800965e-01
6.918767507002800965e-01
6.890756302521008347e-01
6.890756302521008347e-01
6.834733893557423112e-01
6.778711484593837877e-01
6.778711484593837877e-01
6.750700280112045260e-01
6.722689075630252642e-01
6.722689075630252642e-01
6.722689075630252642e-01
6.694677871148458914e-01
6.694677871148458914e-01
6.694677871148458914e-01
6.638655462184873679e-01
6.638655462184873679e-01
6.582633053221288444e-01
6.498599439775910591e-01
6.470588235294117974e-01
6.442577030812325356e-01
6.386554621848739011e-01
6.330532212885153776e-01
6.302521008403361158e-01
6.218487394957983305e-01
6.106442577030812835e-01
6.022408963585433872e-01
5.910364145658263402e-01
5.770308123249299204e-01
5.658263305322128733e-01
5.518207282913165646e-01
5.378151260504201447e-01
5.266106442577030977e-01
5.126050420168066779e-01
4.985994397759103691e-01
4.901960784313725283e-01
4.761904761904761640e-01
4.733893557422969023e-01
4.649859943977591170e-01
4.593837535014005380e-01
4.593837535014005380e-01
4.649859943977591170e-01
4.761904761904761640e-01
4.845938375350140048e-01
4.985994397759103691e-01
5.182072829131653124e-01
5.322128851540616212e-01
5.518207282913165646e-01
5.714285714285713969e-01
5.854341736694678167e-01
5.966386554621848637e-01
6.078431372549019107e-01
6.134453781512605453e-01
6.218487394957983305e-01
6.218487394957983305e-01
6.274509803921568540e-01
6.274509803921568540e-01
6.330532212885153776e-01
6.358543417366946393e-01
6.414565826330532738e-01
6.442577030812325356e-01
6.470588235294117974e-01
6.442577030812325356e-01
6.442577030812325356e-01
6.414565826330532738e-01
6.414565826330532738e-01
6.386554621848739011e-01
6.386554621848739011e-01
6.386554621848739011e-01
6.358543417366946393e-01
6.358543417366946393e-01
6.358543417366946393e-01
6.358543417366946393e-01
6.358543417366946393e-01
6.358543417366946393e-01
6.358543417366946393e-01
6.358543417366946393e-01
6.358543417366946393e-01
6.358543417366946393e-01
6.386554621848739011e-01
6.442577030812325356e-01
6.470588235294117974e-01
6.470588235294117974e-01
6.526610644257703209e-01
6.526610644257703209e-01
6.526610644257703209e-01
6.526610644257703209e-01
6.526610644257703209e-01
6.498599439775910591e-01
6.470588235294117974e-01
6.470588235294117974e-01
6.470588235294117974e-01
6.470588235294117974e-01
6.470588235294117974e-01
6.470588235294117974e-01
6.470588235294117974e-01
6.470588235294117974e-01
6.470588235294117974e-01
6.470588235294117974e-01
6.470588235294117974e-01
6.470588235294117974e-01
6.470588235294117974e-01
6.470588235294117974e-01
6.470588235294117974e-01
6.498599439775910591e-01
6.498599439775910591e-01
6.498599439775910591e-01
6.498599439775910591e-01
6.470588235294117974e-01
6.442577030812325356e-01
6.442577030812325356e-01
6.414565826330532738e-01
6.414565826330532738e-01
6.414565826330532738e-01
6.414565826330532738e-01
6.414565826330532738e-01
6.414565826330532738e-01
6.414565826330532738e-01
6.414565826330532738e-01
6.414565826330532738e-01
6.414565826330532738e-01
6.414565826330532738e-01
6.414565826330532738e-01
6.414565826330532738e-01
6.386554621848739011e-01
6.386554621848739011e-01
6.358543417366946393e-01
6.330532212885153776e-01
6.330532212885153776e-01
6.302521008403361158e-01
6.274509803921568540e-01
6.274509803921568540e-01
6.246498599439775923e-01
6.218487394957983305e-01
6.218487394957983305e-01
6.190476190476190688e-01
6.162464985994398070e-01
6.134453781512605453e-01
6.106442577030812835e-01
6.078431372549019107e-01
6.050420168067226490e-01
6.078431372549019107e-01
6.162464985994398070e-01
6.218487394957983305e-01
6.274509803921568540e-01
6.330532212885153776e-01
6.386554621848739011e-01
6.414565826330532738e-01
6.414565826330532738e-01
6.414565826330532738e-01
6.414565826330532738e-01
6.386554621848739011e-01
6.386554621848739011e-01
6.386554621848739011e-01
6.358543417366946393e-01
6.358543417366946393e-01
6.330532212885153776e-01
6.302521008403361158e-01
6.218487394957983305e-01
5.910364145658263402e-01
5.294117647058823595e-01
4.229691876750700241e-01
2.969187675070028010e-01
1.232492997198879614e-01
5.602240896358543464e-03
8.683473389355741978e-02
3.109243697478991653e-01
4.761904761904761640e-01
6.106442577030812835e-01
7.254901960784313486e-01
7.086834733893557781e-01
6.946778711484593583e-01
6.778711484593837877e-01
6.610644257703081061e-01
6.498599439775910591e-01
6.470588235294117974e-01
6.470588235294117974e-01
6.442577030812325356e-01
6.442577030812325356e-01
6.442577030812325356e-01
6.414565826330532738e-01
6.414565826330532738e-01
6.386554621848739011e-01
6.358543417366946393e-01
6.358543417366946393e-01
6.330532212885153776e-01
6.302521008403361158e-01
6.274509803921568540e-01
6.274509803921568540e-01
6.246498599439775923e-01
6.218487394957983305e-01
6.190476190476190688e-01
6.162464985994398070e-01
6.134453781512605453e-01
6.106442577030812835e-01
6.050420168067226490e-01
6.050420168067226490e-01
5.966386554621848637e-01
5.966386554621848637e-01
5.882352941176470784e-01
5.826330532212885549e-01
5.742296918767506586e-01
5.658263305322128733e-01
5.574229691876750881e-01
5.490196078431373028e-01
5.350140056022408830e-01
5.266106442577030977e-01
5.126050420168066779e-01
4.957983193277311074e-01
4.817927170868347431e-01
4.649859943977591170e-01
4.565826330532212762e-01
4.425770308123249119e-01
4.341736694677871267e-01
4.257703081232492859e-01
4.229691876750700241e-01
4.229691876750700241e-01
4.257703081232492859e-01
4.257703081232492859e-01
4.425770308123249119e-01
4.565826330532212762e-01
4.677871148459383788e-01
4.845938375350140048e-01
5.070028011204481544e-01
5.210084033613445742e-01
5.378151260504201447e-01
5.574229691876750881e-01
5.686274509803921351e-01
5.798319327731092931e-01
5.882352941176470784e-01
5.966386554621848637e-01
5.994397759103641254e-01
5.994397759103641254e-01
6.050420168067226490e-01
6.078431372549019107e-01
6.078431372549019107e-01
6.106442577030812835e-01
6.106442577030812835e-01
6.106442577030812835e-01
6.134453781512605453e-01
6.134453781512605453e-01
6.162464985994398070e-01
6.162464985994398070e-01
6.190476190476190688e-01
6.190476190476190688e-01
6.190476190476190688e-01
6.162464985994398070e-01
6.162464985994398070e-01
6.134453781512605453e-01
6.134453781512605453e-01
6.134453781512605453e-01
6.162464985994398070e-01
6.162464985994398070e-01
6.190476190476190688e-01
6.190476190476190688e-01
6.190476190476190688e-01
6.218487394957983305e-01
6.246498599439775923e-01
6.246498599439775923e-01
6.274509803921568540e-01
6.274509803921568540e-01
6.330532212885153776e-01
6.358543417366946393e-01
6.386554621848739011e-01
6.414565826330532738e-01
6.414565826330532738e-01
6.414565826330532738e-01
6.414565826330532738e-01
6.442577030812325356e-01
6.442577030812325356e-01
6.442577030812325356e-01
6.442577030812325356e-01
6.442577030812325356e-01
6.442577030812325356e-01
6.414565826330532738e-01
6.414565826330532738e-01
6.414565826330532738e-01
6.414565826330532738e-01
6.414565826330532738e-01
6.386554621848739011e-01
6.386554621848739011e-01
6.386554621848739011e-01
6.386554621848739011e-01
6.386554621848739011e-01
6.414565826330532738e-01
6.414565826330532738e-01
6.414565826330532738e-01
6.414565826330532738e-01
6.414565826330532738e-01
6.414565826330532738e-01
6.414565826330532738e-01
6.414565826330532738e-01
6.414565826330532738e-01
6.414565826330532738e-01
6.414565826330532738e-01
6.414565826330532738e-01
6.386554621848739011e-01
6.330532212885153776e-01
6.330532212885153776e-01
6.274509803921568540e-01
6.274509803921568540e-01
6.246498599439775923e-01
6.246498599439775923e-01
6.246498599439775923e-01
6.246498599439775923e-01
6.246498599439775923e-01
6.246498599439775923e-01
6.246498599439775923e-01
6.246498599439775923e-01
6.274509803921568540e-01
6.302521008403361158e-01
6.386554621848739011e-01
6.442577030812325356e-01
6.498599439775910591e-01
6.526610644257703209e-01
6.526610644257703209e-01
6.526610644257703209e-01
6.526610644257703209e-01
6.526610644257703209e-01
6.526610644257703209e-01
6.526610644257703209e-01
6.526610644257703209e-01
6.526610644257703209e-01
6.526610644257703209e-01
6.358543417366946393e-01
5.994397759103641254e-01
5.210084033613445742e-01
4.005602240896358746e-01
2.661064425770308106e-01
8.123249299719888239e-02
0.000000000000000000e+00
1.316526610644257744e-01
3.557422969187675199e-01
