5.018450184501844769e-01
5.018450184501844769e-01
5.003594191786073786e-01
4.988738199070302248e-01
4.973882206354531266e-01
4.959026213638759728e-01
4.944170220922988745e-01
4.929314228207217208e-01
4.914458235491446225e-01
4.899602242775674132e-01
4.884746250059903150e-01
4.869890257344131612e-01
4.855034264628360630e-01
4.840178271912589092e-01
4.825322279196818109e-01
4.810466286481046572e-01
4.795610293765275589e-01
4.780754301049503496e-01
4.765898308333732514e-01
4.751042315617961531e-01
4.736186322902189993e-01
4.721330330186419011e-01
4.706474337470647473e-01
4.691618344754876491e-01
4.676762352039104398e-01
4.661906359323333415e-01
4.647050366607561878e-01
4.632194373891790895e-01
4.617338381176019357e-01
4.602482388460248375e-01
4.587626395744476837e-01
4.572770403028705855e-01
4.557914410312934872e-01
4.543058417597162779e-01
4.528202424881391241e-01
4.513346432165620259e-01
4.498490439449849276e-01
4.483634446734077739e-01
4.468778454018306756e-01
4.453922461302534663e-01
4.439066468586763681e-01
4.424210475870992143e-01
4.409354483155221160e-01
4.394498490439449623e-01
4.379642497723678640e-01
4.364786505007907103e-01
4.349930512292136120e-01
4.335074519576364027e-01
4.320218526860593045e-01
4.305362534144822062e-01
4.290506541429050524e-01
4.275650548713278987e-01
4.260794555997508004e-01
4.245938563281737022e-01
4.231082570565965484e-01
4.216226577850194501e-01
4.201370585134422408e-01
4.186514592418651426e-01
4.171658599702879888e-01
4.156802606987108906e-01
4.141946614271337368e-01
4.127090621555566385e-01
4.112234628839795403e-01
4.097378636124023310e-01
4.082522643408251772e-01
4.067666650692480790e-01
4.052810657976709807e-01
4.037954665260938270e-01
4.023098672545166732e-01
4.008242679829395749e-01
3.993386687113624767e-01
3.978530694397852674e-01
3.963674701682081691e-01
3.948818708966310154e-01
3.933962716250539171e-01
3.919106723534767633e-01
3.904250730818996651e-01
3.889394738103225113e-01
3.874538745387454131e-01
5.707257072570726120e-01
5.707257072570726120e-01
5.694956949569495164e-01
5.129151291512915600e-01
5.129151291512915600e-01
5.129151291512915600e-01
5.129151291512915600e-01
5.129151291512915600e-01
5.129151291512915600e-01
5.129151291512915600e-01
5.129151291512915600e-01
5.129151291512915600e-01
5.129151291512915600e-01
5.129151291512915600e-01
5.129151291512915600e-01
5.129151291512915600e-01
5.129151291512915600e-01
5.129151291512915600e-01
5.129151291512915600e-01
5.129151291512915600e-01
5.129151291512915600e-01
5.129151291512915600e-01
5.129151291512915600e-01
5.129151291512915600e-01
5.129151291512915600e-01
5.129151291512915600e-01
5.129151291512915600e-01
5.129151291512915600e-01
5.129151291512915600e-01
5.129151291512915600e-01
5.129151291512915600e-01
5.129151291512915600e-01
5.129151291512915600e-01
5.129151291512915600e-01
5.129151291512915600e-01
5.129151291512915600e-01
5.129151291512915600e-01
5.129151291512915600e-01
5.129151291512915600e-01
5.694956949569495164e-01
5.707257072570726120e-01
5.694956949569495164e-01
1.131611316113161070e-01
2.004920049200492049e-01
4.747847478474784833e-01
7.478474784747847215e-01
4.317343173431734127e-01
1.180811808118081147e-01
4.317343173431734127e-01
4.317343173431734127e-01
4.305043050430504281e-01
7.429274292742927832e-01
7.429274292742927832e-01
4.723247232472324586e-01
2.017220172201721895e-01
4.292742927429274435e-01
4.292742927429274435e-01
4.305043050430504281e-01
1.230012300123001223e-01
1.230012300123001223e-01
1.254612546125461192e-01
1.734317343173431836e-01
1.722017220172201712e-01
1.746617466174661681e-01
4.354243542435424219e-01
1.414514145141451407e-01
1.426814268142681530e-01
4.366543665436654620e-01
4.354243542435424219e-01
4.354243542435424219e-01
1.476014760147601468e-01
4.329643296432964528e-01
4.329643296432964528e-01
4.329643296432964528e-01
1.402214022140221283e-01
1.377613776137761314e-01
1.316113161131611253e-01
1.254612546125461192e-01
1.193111931119311131e-01
1.107011070110701101e-01
1.070110701107011009e-01
1.057810578105781024e-01
1.033210332103321055e-01
4.157441574415743912e-01
7.306273062730627155e-01
7.330873308733086846e-01
7.355473554735547648e-01
7.355473554735547648e-01
7.355473554735547648e-01
4.157441574415743912e-01
4.157441574415743912e-01
9.348093480934809019e-02
9.348093480934809019e-02
9.348093480934809019e-02
9.348093480934809019e-02
7.355473554735547648e-01
7.355473554735547648e-01
7.355473554735547648e-01
7.355473554735547648e-01
4.132841328413284221e-01
4.132841328413284221e-01
4.132841328413284221e-01
4.132841328413284221e-01
4.132841328413284221e-01
7.355473554735547648e-01
7.355473554735547648e-01
4.132841328413284221e-01
4.132841328413284221e-01
4.132841328413284221e-01
4.132841328413284221e-01
7.355473554735547648e-01
4.132841328413284221e-01
9.102091020910209329e-02
9.348093480934809019e-02
9.471094710947108863e-02
7.367773677736777493e-01
7.380073800738007339e-01
4.169741697416974313e-01
4.169741697416974313e-01
8.979089790897909484e-02
9.348093480934809019e-02
9.348093480934809019e-02
4.145141451414514067e-01
7.355473554735547648e-01
7.355473554735547648e-01
4.132841328413284221e-01
7.330873308733086846e-01
7.306273062730627155e-01
7.232472324723246970e-01
9.102091020910209329e-02
8.856088560885608252e-02
8.241082410824107640e-02
3.911439114391143668e-01
7.011070110701107527e-01
6.974169741697416880e-01
6.961869618696187034e-01
3.849938499384993884e-01
7.011070110701107527e-01
3.911439114391143668e-01
8.118081180811807795e-02
8.364083640836408873e-02
7.121771217712177249e-01
7.183271832718327587e-01
7.306273062730627155e-01
4.132841328413284221e-01
4.132841328413284221e-01
7.380073800738007339e-01
7.380073800738007339e-01
4.157441574415743912e-01
9.348093480934809019e-02
7.404674046740467031e-01
4.182041820418204159e-01
9.594095940959410096e-02
4.182041820418204159e-01
4.182041820418204159e-01
7.404674046740467031e-01
7.404674046740467031e-01
7.404674046740467031e-01
4.243542435424354498e-01
7.343173431734317802e-01
7.232472324723246970e-01
6.974169741697416880e-01
6.691266912669127098e-01
5.781057810578106304e-01
5.092250922509224953e-01
5.178351783517834983e-01
5.670356703567035472e-01
6.063960639606396086e-01
6.642066420664206605e-01
7.343173431734317802e-01
1.057810578105781024e-01
7.687576875768757922e-01
7.576875768757687091e-01
7.490774907749077061e-01
7.453874538745387524e-01
7.416974169741696876e-01
7.380073800738007339e-01
7.380073800738007339e-01
4.182041820418204159e-01
4.182041820418204159e-01
4.182041820418204159e-01
7.355473554735547648e-01
7.355473554735547648e-01
7.355473554735547648e-01
7.355473554735547648e-01
4.169741697416974313e-01
7.330873308733086846e-01
7.330873308733086846e-01
1.020910209102091071e-01
1.033210332103321055e-01
7.306273062730627155e-01
7.306273062730627155e-01
4.169741697416974313e-01
4.169741697416974313e-01
4.169741697416974313e-01
1.057810578105781024e-01
1.082410824108241132e-01
1.107011070110701101e-01
1.131611316113161070e-01
1.156211562115621178e-01
1.168511685116851162e-01
4.206642066420664405e-01
4.206642066420664405e-01
1.266912669126691315e-01
1.279212792127921161e-01
1.340713407134071222e-01
1.353013530135301346e-01
4.255842558425584343e-01
7.158671586715866786e-01
7.158671586715866786e-01
4.243542435424354498e-01
4.243542435424354498e-01
4.231242312423124097e-01
1.291512915129151284e-01
1.230012300123001223e-01
1.168511685116851162e-01
1.107011070110701101e-01
1.045510455104551040e-01
9.840098400984009785e-02
9.471094710947108863e-02
9.348093480934809019e-02
4.046740467404674191e-01
4.046740467404674191e-01
8.610086100861008562e-02
8.610086100861008562e-02
8.364083640836408873e-02
8.364083640836408873e-02
7.257072570725707772e-01
7.257072570725707772e-01
4.034440344403443790e-01
4.034440344403443790e-01
8.118081180811807795e-02
8.118081180811807795e-02
4.009840098400984099e-01
4.009840098400984099e-01
7.872078720787208106e-02
7.872078720787208106e-02
7.872078720787208106e-02
7.872078720787208106e-02
7.872078720787208106e-02
7.207872078720787279e-01
7.207872078720787279e-01
7.207872078720787279e-01
7.207872078720787279e-01
3.985239852398523852e-01
3.972939729397294006e-01
3.972939729397294006e-01
7.872078720787208106e-02
7.995079950799507951e-02
8.118081180811807795e-02
3.997539975399754253e-01
8.118081180811807795e-02
3.985239852398523852e-01
3.972939729397294006e-01
7.872078720787208106e-02
3.960639606396064161e-01
7.134071340713407094e-01
7.626076260762607029e-02
3.936039360393603914e-01
7.084870848708486601e-01
3.911439114391143668e-01
7.626076260762607029e-02
3.837638376383764038e-01
3.763837638376383854e-01
6.814268142681426665e-01
6.801968019680196820e-01
3.690036900369003670e-01
6.789667896678966974e-01
6.838868388683886357e-01
6.863468634686347158e-01
6.912669126691266541e-01
6.937269372693727343e-01
6.998769987699876571e-01
7.047970479704797064e-01
7.121771217712177249e-01
7.158671586715866786e-01
7.195571955719557433e-01
7.207872078720787279e-01
4.034440344403443790e-01
4.034440344403443790e-01
4.034440344403443790e-01
8.487084870848708718e-02
8.610086100861008562e-02
7.257072570725707772e-01
4.071340713407133882e-01
7.257072570725707772e-01
7.257072570725707772e-01
7.257072570725707772e-01
7.269372693726937618e-01
4.120541205412054375e-01
9.348093480934809019e-02
7.134071340713407094e-01
6.924969249692496387e-01
6.629766297662976759e-01
6.063960639606396086e-01
5.202952029520294674e-01
4.858548585485855109e-01
5.264452644526445013e-01
5.694956949569495164e-01
6.297662976629766485e-01
6.888068880688806850e-01
9.471094710947108863e-02
7.601476014760147892e-01
7.503075030750308017e-01
7.404674046740467031e-01
7.355473554735547648e-01
7.318573185731857000e-01
4.108241082410823974e-01
4.095940959409594129e-01
4.083640836408364283e-01
7.257072570725707772e-01
9.102091020910209329e-02
9.225092250922509174e-02
9.594095940959410096e-02
4.083640836408364283e-01
9.594095940959410096e-02
7.220172201722017125e-01
9.594095940959410096e-02
7.220172201722017125e-01
8.450184501845018348e-01
9.667896678966789725e-01
9.667896678966789725e-01
9.667896678966789725e-01
9.655596555965559880e-01
9.643296432964330034e-01
9.643296432964330034e-01
9.643296432964330034e-01
8.413284132841328811e-01
8.425584255842558656e-01
9.717097170971710218e-01
9.729397293972940064e-01
9.729397293972940064e-01
1.082410824108241132e-01
1.107011070110701101e-01
1.143911439114391193e-01
1.193111931119311131e-01
7.047970479704797064e-01
9.667896678966789725e-01
9.704797047970479262e-01
9.717097170971710218e-01
9.667896678966789725e-01
8.327183271832718781e-01
8.327183271832718781e-01
7.011070110701107527e-01
7.035670356703567219e-01
7.011070110701107527e-01
7.035670356703567219e-01
9.643296432964330034e-01
9.778597785977859447e-01
9.655596555965559880e-01
8.487084870848708995e-01
3.923739237392374068e-01
3.923739237392374068e-01
3.911439114391143668e-01
7.626076260762607029e-02
3.899138991389913822e-01
9.876998769987699323e-01
9.889298892988930278e-01
9.876998769987699323e-01
7.134071340713407094e-01
7.121771217712177249e-01
7.121771217712177249e-01
7.134071340713407094e-01
7.109471094710947403e-01
7.109471094710947403e-01
7.121771217712177249e-01
8.450184501845018348e-01
9.901599015990160124e-01
9.901599015990160124e-01
9.913899138991389970e-01
7.121771217712177249e-01
7.121771217712177249e-01
7.109471094710947403e-01
7.109471094710947403e-01
7.097170971709717557e-01
7.109471094710947403e-01
7.109471094710947403e-01
7.121771217712177249e-01
9.876998769987699323e-01
9.889298892988930278e-01
9.926199261992619816e-01
6.642066420664206883e-02
6.642066420664206883e-02
6.642066420664206883e-02
3.874538745387454131e-01
3.874538745387454131e-01
9.889298892988930278e-01
9.889298892988930278e-01
9.889298892988930278e-01
7.109471094710947403e-01
7.084870848708486601e-01
7.084870848708486601e-01
7.060270602706026910e-01
7.072570725707256756e-01
7.060270602706026910e-01
6.998769987699876571e-01
6.937269372693727343e-01
9.840098400984009785e-01
8.364083640836408318e-01
9.840098400984009785e-01
6.691266912669127098e-01
6.691266912669127098e-01
6.691266912669127098e-01
6.703567035670356944e-01
6.752767527675276327e-01
6.826568265682656511e-01
6.888068880688806850e-01
6.986469864698646726e-01
9.852398523985239631e-01
9.864698646986469477e-01
9.913899138991389970e-01
7.084870848708486601e-01
3.899138991389913822e-01
6.888068880688806572e-02
7.134071340713407094e-01
7.170971709717096632e-01
9.963099630996310463e-01
9.913899138991389970e-01
9.864698646986469477e-01
9.778597785977859447e-01
9.680196801968019571e-01
9.643296432964330034e-01
7.207872078720787279e-01
7.195571955719557433e-01
7.220172201722017125e-01
7.281672816728167463e-01
7.134071340713407094e-01
6.937269372693727343e-01
6.654366543665436451e-01
6.088560885608855777e-01
5.264452644526445013e-01
4.821648216482165017e-01
5.264452644526445013e-01
5.596555965559655288e-01
6.654366543665436451e-01
6.851168511685117313e-01
7.552275522755227399e-01
7.589175891758918047e-01
7.416974169741696876e-01
7.343173431734317802e-01
7.232472324723246970e-01
3.997539975399754253e-01
3.985239852398523852e-01
7.872078720787208106e-02
3.985239852398523852e-01
7.158671586715866786e-01
3.972939729397294006e-01
7.872078720787208106e-02
3.960639606396064161e-01
7.134071340713407094e-01
7.134071340713407094e-01
3.948339483394833760e-01
3.948339483394833760e-01
7.109471094710947403e-01
7.995079950799507951e-02
8.118081180811807795e-02
7.084870848708486601e-01
7.084870848708486601e-01
3.948339483394833760e-01
7.060270602706026910e-01
7.084870848708486601e-01
8.610086100861008562e-02
8.733087330873308407e-02
7.035670356703567219e-01
3.960639606396064161e-01
9.471094710947108863e-02
9.717097170971709941e-02
9.840098400984009785e-02
3.985239852398523852e-01
1.082410824108241132e-01
1.082410824108241132e-01
4.022140221402213944e-01
6.912669126691266541e-01
1.131611316113161070e-01
1.143911439114391193e-01
1.156211562115621178e-01
6.912669126691266541e-01
4.022140221402213944e-01
4.022140221402213944e-01
1.107011070110701101e-01
1.057810578105781024e-01
9.963099630996309630e-02
9.471094710947108863e-02
8.979089790897909484e-02
8.610086100861008562e-02
8.118081180811807795e-02
7.749077490774908261e-02
3.862238622386223730e-01
7.134071340713407650e-02
6.888068880688806572e-02
7.011070110701107527e-01
7.011070110701107527e-01
6.642066420664206883e-02
6.642066420664206883e-02
7.035670356703567219e-01
7.035670356703567219e-01
7.035670356703567219e-01
6.396063960639605805e-02
6.396063960639605805e-02
3.837638376383764038e-01
7.035670356703567219e-01
7.035670356703567219e-01
7.035670356703567219e-01
7.035670356703567219e-01
7.035670356703567219e-01
3.825338253382533638e-01
3.825338253382533638e-01
3.825338253382533638e-01
3.825338253382533638e-01
3.825338253382533638e-01
3.825338253382533638e-01
3.813038130381303792e-01
3.813038130381303792e-01
3.819188191881918715e-01
3.825338253382533638e-01
3.825338253382533638e-01
3.825338253382533638e-01
3.825338253382533638e-01
7.035670356703567219e-01
7.035670356703567219e-01
7.035670356703567219e-01
3.837638376383764038e-01
3.825338253382533638e-01
3.825338253382533638e-01
3.825338253382533638e-01
3.825338253382533638e-01
7.035670356703567219e-01
3.813038130381303792e-01
3.813038130381303792e-01
7.011070110701106417e-02
7.134071340713407650e-02
7.134071340713407650e-02
7.134071340713407650e-02
7.134071340713407650e-02
7.257072570725707494e-02
1.918819188191882019e-01
1.906519065190651896e-01
1.894218942189421773e-01
1.808118081180811743e-01
1.808118081180811743e-01
1.820418204182041866e-01
1.906519065190651896e-01
1.881918819188191927e-01
1.795817958179581897e-01
1.783517835178351774e-01
1.783517835178351774e-01
1.832718327183271712e-01
1.845018450184501835e-01
1.918819188191882019e-01
6.851168511685117313e-01
6.912669126691266541e-01
1.525215252152521406e-01
1.525215252152521406e-01
1.586715867158671467e-01
1.611316113161131713e-01
1.672816728167281775e-01
1.734317343173431836e-01
1.808118081180811743e-01
1.881918819188191927e-01
1.943419434194341988e-01
1.968019680196801957e-01
1.980319803198032080e-01
1.943419434194341988e-01
1.906519065190651896e-01
1.845018450184501835e-01
1.758917589175891805e-01
1.709717097170971589e-01
1.672816728167281775e-01
4.169741697416974313e-01
6.420664206642066052e-01
5.953259532595326364e-01
5.436654366543665073e-01
5.104551045510454799e-01
5.166051660516605137e-01
5.522755227552275104e-01
5.879458794587946180e-01
1.881918819188191927e-01
1.685116851168511620e-01
7.503075030750308017e-01
7.330873308733086846e-01
1.746617466174661681e-01
1.722017220172201712e-01
1.525215252152521406e-01
1.722017220172201712e-01
1.623616236162361559e-01
1.635916359163591682e-01
1.549815498154981652e-01
1.525215252152521406e-01
3.972939729397294006e-01
7.872078720787208106e-02
3.960639606396064161e-01
2.361623616236162293e-01
7.626076260762607029e-02
7.626076260762607029e-02
7.626076260762607029e-02
3.936039360393603914e-01
7.109471094710947403e-01
7.109471094710947403e-01
7.109471094710947403e-01
3.936039360393603914e-01
3.936039360393603914e-01
7.084870848708486601e-01
7.084870848708486601e-01
3.936039360393603914e-01
7.872078720787208106e-02
7.060270602706026910e-01
3.923739237392374068e-01
3.911439114391143668e-01
3.899138991389913822e-01
6.986469864698646726e-01
3.886838868388683976e-01
6.949569495694957189e-01
3.874538745387454131e-01
8.118081180811807795e-02
6.888068880688806850e-01
6.863468634686347158e-01
6.838868388683886357e-01
6.838868388683886357e-01
6.838868388683886357e-01
7.872078720787208106e-02
3.825338253382533638e-01
7.626076260762607029e-02
6.888068880688806850e-01
7.257072570725707494e-02
7.134071340713407650e-02
3.800738007380073946e-01
3.800738007380073946e-01
3.788437884378843545e-01
6.961869618696187034e-01
6.961869618696187034e-01
3.800738007380073946e-01
7.072570725707256756e-01
3.849938499384993884e-01
3.849938499384993884e-01
3.849938499384993884e-01
3.849938499384993884e-01
7.060270602706026910e-01
7.060270602706026910e-01
3.862238622386223730e-01
6.642066420664206883e-02
3.849938499384993884e-01
3.825338253382533638e-01
6.150061500615006116e-02
6.150061500615006116e-02
3.825338253382533638e-01
3.825338253382533638e-01
7.035670356703567219e-01
3.837638376383764038e-01
3.837638376383764038e-01
7.060270602706026910e-01
7.060270602706026910e-01
7.060270602706026910e-01
3.837638376383764038e-01
3.837638376383764038e-01
6.396063960639605805e-02
3.837638376383764038e-01
7.035670356703567219e-01
3.837638376383764038e-01
3.837638376383764038e-01
7.035670356703567219e-01
7.035670356703567219e-01
7.035670356703567219e-01
7.035670356703567219e-01
7.035670356703567219e-01
7.035670356703567219e-01
7.035670356703567219e-01
7.035670356703567219e-01
7.035670356703567219e-01
7.035670356703567219e-01
7.035670356703567219e-01
7.072570725707256756e-01
7.035670356703567219e-01
7.035670356703567219e-01
7.035670356703567219e-01
7.035670356703567219e-01
7.035670356703567219e-01
7.035670356703567219e-01
7.035670356703567219e-01
3.837638376383764038e-01
6.396063960639605805e-02
6.396063960639605805e-02
6.396063960639605805e-02
6.396063960639605805e-02
7.011070110701107527e-01
6.974169741697416880e-01
6.924969249692496387e-01
6.863468634686347158e-01
3.677736777367773824e-01
3.628536285362853886e-01
6.728167281672816635e-01
6.703567035670356944e-01
3.690036900369003670e-02
3.936039360393604053e-02
4.182041820418204436e-02
3.579335793357933393e-01
6.740467404674046481e-01
6.777367773677737128e-01
6.826568265682656511e-01
6.863468634686347158e-01
6.924969249692496387e-01
6.986469864698646726e-01
3.837638376383764038e-01
7.060270602706026910e-01
7.084870848708486601e-01
3.886838868388683976e-01
3.886838868388683976e-01
7.109471094710947403e-01
7.109471094710947403e-01
6.888068880688806572e-02
6.765067650676506728e-02
6.888068880688806572e-02
6.888068880688806572e-02
6.888068880688806572e-02
7.146371463714636940e-01
7.220172201722017125e-01
7.220172201722017125e-01
7.097170971709717557e-01
6.900369003690036696e-01
6.580565805658056266e-01
6.396063960639606361e-01
5.879458794587946180e-01
5.424354243542435228e-01
5.030750307503074614e-01
5.510455104551045258e-01
5.940959409594095408e-01
6.457564575645756699e-01
7.232472324723246970e-01
7.515375153751537862e-01
7.367773677736777493e-01
7.232472324723246970e-01
7.281672816728167463e-01
9.840098400984009785e-01
9.840098400984009785e-01
9.840098400984009785e-01
9.692496924969249417e-01
7.146371463714636940e-01
7.146371463714636940e-01
7.109471094710947403e-01
7.097170971709717557e-01
7.121771217712177249e-01
7.121771217712177249e-01
9.667896678966789725e-01
9.741697416974169910e-01
9.827798277982779940e-01
9.827798277982779940e-01
9.827798277982779940e-01
3.874538745387454131e-01
3.862238622386223730e-01
3.862238622386223730e-01
3.874538745387454131e-01
9.889298892988930278e-01
9.889298892988930278e-01
9.876998769987699323e-01
7.023370233702337373e-01
6.998769987699876571e-01
6.961869618696187034e-01
6.974169741697416880e-01
6.937269372693727343e-01
6.949569495694957189e-01
6.937269372693727343e-01
6.924969249692496387e-01
9.864698646986469477e-01
9.889298892988930278e-01
9.913899138991389970e-01
6.838868388683886357e-01
6.826568265682656511e-01
6.826568265682656511e-01
6.826568265682656511e-01
6.826568265682656511e-01
6.838868388683886357e-01
6.826568265682656511e-01
6.851168511685117313e-01
9.889298892988930278e-01
9.889298892988930278e-01
9.913899138991389970e-01
3.714637146371463916e-01
3.726937269372693762e-01
6.888068880688806850e-01
6.912669126691266541e-01
3.763837638376383854e-01
9.864698646986469477e-01
9.864698646986469477e-01
9.876998769987699323e-01
7.035670356703567219e-01
7.035670356703567219e-01
7.047970479704797064e-01
7.047970479704797064e-01
7.060270602706026910e-01
8.413284132841328811e-01
7.060270602706026910e-01
7.072570725707256756e-01
9.889298892988930278e-01
9.913899138991389970e-01
9.913899138991389970e-01
3.788437884378843545e-01
7.023370233702337373e-01
7.035670356703567219e-01
7.023370233702337373e-01
7.011070110701107527e-01
7.023370233702337373e-01
7.023370233702337373e-01
9.766297662976629601e-01
9.876998769987699323e-01
9.889298892988930278e-01
9.938499384993849661e-01
3.776137761377613700e-01
3.776137761377613700e-01
3.776137761377613700e-01
6.986469864698646726e-01
7.011070110701107527e-01
9.987699876998770154e-01
9.938499384993849661e-01
9.840098400984009785e-01
9.766297662976629601e-01
9.667896678966789725e-01
9.655596555965559880e-01
7.035670356703567219e-01
3.813038130381303792e-01
3.813038130381303792e-01
3.813038130381303792e-01
9.876998769987699323e-01
9.864698646986469477e-01
9.864698646986469477e-01
7.047970479704797064e-01
7.035670356703567219e-01
7.047970479704797064e-01
7.047970479704797064e-01
7.047970479704797064e-01
9.778597785977859447e-01
7.047970479704797064e-01
7.060270602706026910e-01
9.864698646986469477e-01
9.889298892988930278e-01
9.876998769987699323e-01
3.690036900369003670e-01
6.838868388683886357e-01
6.789667896678966974e-01
6.728167281672816635e-01
6.703567035670356944e-01
6.691266912669127098e-01
6.666666666666666297e-01
9.840098400984009785e-01
9.864698646986469477e-01
9.889298892988930278e-01
6.740467404674046481e-01
6.777367773677737128e-01
6.801968019680196820e-01
6.900369003690036696e-01
6.998769987699876571e-01
8.351783517835178472e-01
9.680196801968019571e-01
9.741697416974169910e-01
9.827798277982779940e-01
9.864698646986469477e-01
9.926199261992619816e-01
1.000000000000000000e+00
7.109471094710947403e-01
7.097170971709717557e-01
7.158671586715866786e-01
9.950799507995079507e-01
9.901599015990160124e-01
9.852398523985239631e-01
8.474784747847478039e-01
9.704797047970479262e-01
7.047970479704797064e-01
6.814268142681426665e-01
6.519065190651907038e-01
6.322263222632226176e-01
5.461254612546125875e-01
5.104551045510454799e-01
4.969249692496924831e-01
5.510455104551045258e-01
5.953259532595326364e-01
6.531365313653136884e-01
8.979089790897909484e-02
7.490774907749077061e-01
7.367773677736777493e-01
7.244772447724476816e-01
7.170971709717096632e-01
7.134071340713407094e-01
7.109471094710947403e-01
7.380073800738007339e-02
7.380073800738007339e-02
3.911439114391143668e-01
3.911439114391143668e-01
7.084870848708486601e-01
7.084870848708486601e-01
3.899138991389913822e-01
3.899138991389913822e-01
7.060270602706026910e-01
7.060270602706026910e-01
3.886838868388683976e-01
7.035670356703567219e-01
7.035670356703567219e-01
7.011070110701107527e-01
3.862238622386223730e-01
7.134071340713407650e-02
3.849938499384993884e-01
6.986469864698646726e-01
6.986469864698646726e-01
6.961869618696187034e-01
6.961869618696187034e-01
7.134071340713407650e-02
3.825338253382533638e-01
3.825338253382533638e-01
6.912669126691266541e-01
6.888068880688806850e-01
6.863468634686347158e-01
6.838868388683886357e-01
7.872078720787208106e-02
7.995079950799507951e-02
7.995079950799507951e-02
7.626076260762607029e-02
3.739237392373923607e-01
3.739237392373923607e-01
7.134071340713407650e-02
7.134071340713407650e-02
7.011070110701106417e-02
6.765067650676506728e-02
6.642066420664206883e-02
6.740467404674046481e-01
3.690036900369003670e-01
3.702337023370233515e-01
3.702337023370233515e-01
6.838868388683886357e-01
3.714637146371463916e-01
3.726937269372693762e-01
3.726937269372693762e-01
3.739237392373923607e-01
6.912669126691266541e-01
3.763837638376383854e-01
3.763837638376383854e-01
5.904059040590405733e-02
5.904059040590405733e-02
3.763837638376383854e-01
3.763837638376383854e-01
3.763837638376383854e-01
3.763837638376383854e-01
3.763837638376383854e-01
3.763837638376383854e-01
3.763837638376383854e-01
3.763837638376383854e-01
3.763837638376383854e-01
3.751537515375154008e-01
3.751537515375154008e-01
6.912669126691266541e-01
6.912669126691266541e-01
6.912669126691266541e-01
5.658056580565805349e-02
3.751537515375154008e-01
3.763837638376383854e-01
3.776137761377613700e-01
6.961869618696187034e-01
6.961869618696187034e-01
3.788437884378843545e-01
3.800738007380073946e-01
3.800738007380073946e-01
6.986469864698646726e-01
6.986469864698646726e-01
3.813038130381303792e-01
6.396063960639605805e-02
3.825338253382533638e-01
3.825338253382533638e-01
7.011070110701107527e-01
3.837638376383764038e-01
3.849938499384993884e-01
3.849938499384993884e-01
7.035670356703567219e-01
3.862238622386223730e-01
3.874538745387454131e-01
3.874538745387454131e-01
3.886838868388683976e-01
3.886838868388683976e-01
7.060270602706026910e-01
3.874538745387454131e-01
3.862238622386223730e-01
3.849938499384993884e-01
3.837638376383764038e-01
7.011070110701107527e-01
3.825338253382533638e-01
6.961869618696187034e-01
3.763837638376383854e-01
3.714637146371463916e-01
5.412054120541205660e-02
6.740467404674046481e-01
6.740467404674046481e-01
6.703567035670356944e-01
3.554735547355473702e-01
4.674046740467404509e-02
3.603936039360393639e-01
6.777367773677737128e-01
6.801968019680196820e-01
6.826568265682656511e-01
6.863468634686347158e-01
6.937269372693727343e-01
6.998769987699876571e-01
3.862238622386223730e-01
3.886838868388683976e-01
3.899138991389913822e-01
3.911439114391143668e-01
7.109471094710947403e-01
7.109471094710947403e-01
7.109471094710947403e-01
7.109471094710947403e-01
3.936039360393603914e-01
7.380073800738007339e-02
7.380073800738007339e-02
7.380073800738007339e-02
3.936039360393603914e-01
7.872078720787208106e-02
3.972939729397294006e-01
7.011070110701107527e-01
6.826568265682656511e-01
6.457564575645756699e-01
6.076260762607625932e-01
5.547355473554735905e-01
5.104551045510454799e-01
4.981549815498155231e-01
5.547355473554735905e-01
6.063960639606396086e-01
6.580565805658056266e-01
8.733087330873308407e-02
7.503075030750307184e-02
7.503075030750307184e-02
7.380073800738007339e-02
7.872078720787208106e-02
7.749077490774908261e-02
1.549815498154981652e-01
1.611316113161131713e-01
1.672816728167281775e-01
1.709717097170971589e-01
1.783517835178351774e-01
1.845018450184501835e-01
1.918819188191882019e-01
1.955719557195571834e-01
1.968019680196801957e-01
1.943419434194341988e-01
1.918819188191882019e-01
1.845018450184501835e-01
1.771217712177121650e-01
1.709717097170971589e-01
1.635916359163591682e-01
1.562115621156211498e-01
1.549815498154981652e-01
1.512915129151291560e-01
4.428044280442804126e-02
4.182041820418204436e-02
1.955719557195571834e-01
1.746617466174661681e-01
1.525215252152521406e-01
1.537515375153751529e-01
1.697416974169741744e-01
1.623616236162361559e-01
1.623616236162361559e-01
1.722017220172201712e-01
1.709717097170971589e-01
1.746617466174661681e-01
1.857318573185731958e-01
1.746617466174661681e-01
1.771217712177121650e-01
1.734317343173431836e-01
1.845018450184501835e-01
1.722017220172201643e-02
2.214022140221402063e-02
2.337023370233702255e-02
3.075030750307503058e-02
3.444034440344403286e-02
3.936039360393604053e-02
4.305043050430504281e-02
3.653136531365313577e-01
6.863468634686347158e-01
6.863468634686347158e-01
3.714637146371463916e-01
6.912669126691266541e-01
3.763837638376383854e-01
6.150061500615006116e-02
6.396063960639605805e-02
3.825338253382533638e-01
3.825338253382533638e-01
6.986469864698646726e-01
3.837638376383764038e-01
3.837638376383764038e-01
7.011070110701107527e-01
7.011070110701107527e-01
3.849938499384993884e-01
3.849938499384993884e-01
7.011070110701107527e-01
3.837638376383764038e-01
6.642066420664206883e-02
6.642066420664206883e-02
3.813038130381303792e-01
3.813038130381303792e-01
3.800738007380073946e-01
3.788437884378843545e-01
6.961869618696187034e-01
3.776137761377613700e-01
5.904059040590405733e-02
5.904059040590405733e-02
3.776137761377613700e-01
6.150061500615006116e-02
6.150061500615006116e-02
6.150061500615006116e-02
3.788437884378843545e-01
3.794587945879459023e-01
3.800738007380073946e-01
3.800738007380073946e-01
3.813038130381303792e-01
3.813038130381303792e-01
3.813038130381303792e-01
3.813038130381303792e-01
3.813038130381303792e-01
3.813038130381303792e-01
3.813038130381303792e-01
3.813038130381303792e-01
3.825338253382533638e-01
6.912669126691266541e-01
6.900369003690036696e-01
6.888068880688806850e-01
7.626076260762607029e-02
3.837638376383764038e-01
3.837638376383764038e-01
3.837638376383764038e-01
3.849938499384993884e-01
6.937269372693727343e-01
6.937269372693727343e-01
3.862238622386223730e-01
3.862238622386223730e-01
3.862238622386223730e-01
6.900369003690036696e-01
6.851168511685117313e-01
6.801968019680196820e-01
6.740467404674046481e-01
6.728167281672816635e-01
6.666666666666666297e-01
6.629766297662976759e-01
6.592865928659286112e-01
3.628536285362853886e-01
3.640836408364083732e-01
3.653136531365313577e-01
6.666666666666666297e-01
3.690036900369003670e-01
6.715867158671586790e-01
6.789667896678966974e-01
3.825338253382533638e-01
6.888068880688806850e-01
6.937269372693727343e-01
3.899138991389913822e-01
3.911439114391143668e-01
6.986469864698646726e-01
3.911439114391143668e-01
3.911439114391143668e-01
7.011070110701107527e-01
3.886838868388683976e-01
3.886838868388683976e-01
3.899138991389913822e-01
7.011070110701107527e-01
7.872078720787208106e-02
7.749077490774908261e-02
7.257072570725707494e-02
5.535055350553505504e-02
5.043050430504304738e-02
3.517835178351783609e-01
6.494464944649446236e-01
6.236162361623616146e-01
5.473554735547355721e-01
1.389913899138991438e-01
1.623616236162361559e-01
4.464944649446494496e-01
5.658056580565805627e-01
6.506765067650676082e-01
2.656826568265682753e-01
1.918819188191882019e-01
1.599015990159901590e-01
1.242312423124231208e-01
1.008610086100860948e-01
8.610086100861008562e-02
7.626076260762607029e-02
7.257072570725707494e-02
6.888068880688806572e-02
3.825338253382533638e-01
3.813038130381303792e-01
6.150061500615006116e-02
3.813038130381303792e-01
5.781057810578105888e-02
5.412054120541205660e-02
5.166051660516605276e-02
3.763837638376383854e-01
3.751537515375154008e-01
3.751537515375154008e-01
4.674046740467404509e-02
3.739237392373923607e-01
6.986469864698646726e-01
6.961869618696187034e-01
6.961869618696187034e-01
3.702337023370233515e-01
3.690036900369003670e-01
3.936039360393604053e-02
3.567035670356703825e-02
3.075030750307503058e-02
2.706027060270602830e-02
2.091020910209102218e-02
1.845018450184501835e-02
1.353013530135301415e-02
9.840098400984010132e-03
3.690036900369003583e-03
3.456334563345633271e-01
6.875768757687577004e-01
0.000000000000000000e+00
1.230012300123001267e-03
7.380073800738007166e-03
1.107011070110701031e-02
1.599015990159901451e-02
1.968019680196802026e-02
2.583025830258302638e-02
2.829028290282902675e-02
3.321033210332103441e-02
3.813038130381303514e-02
4.182041820418204436e-02
4.674046740467404509e-02
5.289052890528905121e-02
3.776137761377613700e-01
3.800738007380073946e-01
6.396063960639605805e-02
3.849938499384993884e-01
3.874538745387454131e-01
3.874538745387454131e-01
3.886838868388683976e-01
3.899138991389913822e-01
7.109471094710947403e-01
7.109471094710947403e-01
3.911439114391143668e-01
7.134071340713407650e-02
7.134071340713407650e-02
7.134071340713407650e-02
3.923739237392374068e-01
7.134071340713407650e-02
7.134071340713407650e-02
7.134071340713407650e-02
7.134071340713407650e-02
3.911439114391143668e-01
3.911439114391143668e-01
3.911439114391143668e-01
6.888068880688806572e-02
6.888068880688806572e-02
6.888068880688806572e-02
6.888068880688806572e-02
6.888068880688806572e-02
7.134071340713407094e-01
3.923739237392374068e-01
3.923739237392374068e-01
3.923739237392374068e-01
3.923739237392374068e-01
7.134071340713407094e-01
7.134071340713407094e-01
3.936039360393603914e-01
7.158671586715866786e-01
7.158671586715866786e-01
7.158671586715866786e-01
7.158671586715866786e-01
3.948339483394833760e-01
3.948339483394833760e-01
7.011070110701106417e-02
3.972939729397294006e-01
3.972939729397294006e-01
3.972939729397294006e-01
7.626076260762607029e-02
7.134071340713407094e-01
7.097170971709717557e-01
7.047970479704797064e-01
7.011070110701107527e-01
6.961869618696187034e-01
6.900369003690036696e-01
6.851168511685117313e-01
3.739237392373923607e-01
6.888068880688806572e-02
3.776137761377613700e-01
3.800738007380073946e-01
6.888068880688806850e-01
6.937269372693727343e-01
6.986469864698646726e-01
7.047970479704797064e-01
7.146371463714636940e-01
7.183271832718327587e-01
7.232472324723246970e-01
7.281672816728167463e-01
8.856088560885608252e-02
8.856088560885608252e-02
4.095940959409594129e-01
7.330873308733086846e-01
4.108241082410823974e-01
8.610086100861008562e-02
4.095940959409594129e-01
4.095940959409594129e-01
8.610086100861008562e-02
8.856088560885608252e-02
4.132841328413284221e-01
7.872078720787208106e-02
6.150061500615006116e-02
5.043050430504304738e-02
6.961869618696187034e-01
6.961869618696187034e-01
6.506765067650676082e-01
5.608856088560885134e-01
1.562115621156211498e-01
1.857318573185731958e-01
4.932349323493234738e-01
6.088560885608855777e-01
6.740467404674046481e-01
2.632226322263222507e-01
1.906519065190651896e-01
1.537515375153751529e-01
1.070110701107011009e-01
8.733087330873308407e-02
7.380073800738007339e-02
6.888068880688806572e-02
3.985239852398523852e-01
3.985239852398523852e-01
6.150061500615006116e-02
6.150061500615006116e-02
3.948339483394833760e-01
3.948339483394833760e-01
3.948339483394833760e-01
3.948339483394833760e-01
5.781057810578105888e-02
5.781057810578105888e-02
3.923739237392374068e-01
3.886838868388683976e-01
4.674046740467404509e-02
4.428044280442804126e-02
4.182041820418204436e-02
3.813038130381303792e-01
3.444034440344403286e-02
2.952029520295202866e-02
2.583025830258302638e-02
1.968019680196802026e-02
1.599015990159901451e-02
1.230012300123001223e-02
8.610086100861008215e-03
6.150061500615006116e-03
0.000000000000000000e+00
0.000000000000000000e+00
7.158671586715866786e-01
7.158671586715866786e-01
7.158671586715866786e-01
7.134071340713407094e-01
7.121771217712177249e-01
7.109471094710947403e-01
7.084870848708486601e-01
7.060270602706026910e-01
7.035670356703567219e-01
1.230012300123001267e-03
4.920049200492005066e-03
1.353013530135301415e-02
1.968019680196802026e-02
2.829028290282902675e-02
3.444034440344403286e-02
4.305043050430504281e-02
4.920049200492004893e-02
5.658056580565805349e-02
3.862238622386223730e-01
6.642066420664206883e-02
7.011070110701106417e-02
3.948339483394833760e-01
7.380073800738007339e-02
7.207872078720787279e-01
7.626076260762607029e-02
7.872078720787208106e-02
8.118081180811807795e-02
4.022140221402213944e-01
8.364083640836408873e-02
8.733087330873308407e-02
4.046740467404674191e-01
7.207872078720787279e-01
4.034440344403443790e-01
4.034440344403443790e-01
4.034440344403443790e-01
7.207872078720787279e-01
7.207872078720787279e-01
7.207872078720787279e-01
5.608856088560885134e-01
4.009840098400984099e-01
7.872078720787208106e-02
7.626076260762607029e-02
7.626076260762607029e-02
7.626076260762607029e-02
7.626076260762607029e-02
7.626076260762607029e-02
3.985239852398523852e-01
3.985239852398523852e-01
3.985239852398523852e-01
3.985239852398523852e-01
7.749077490774908261e-02
8.118081180811807795e-02
8.610086100861008562e-02
8.856088560885608252e-02
9.102091020910209329e-02
4.059040590405904037e-01
7.158671586715866786e-01
7.121771217712177249e-01
7.084870848708486601e-01
7.023370233702337373e-01
6.974169741697416880e-01
6.900369003690036696e-01
6.863468634686347158e-01
6.814268142681426665e-01
6.814268142681426665e-01
6.838868388683886357e-01
6.851168511685117313e-01
6.888068880688806850e-01
6.912669126691266541e-01
3.899138991389913822e-01
7.023370233702337373e-01
7.060270602706026910e-01
7.134071340713407094e-01
7.146371463714636940e-01
4.095940959409594129e-01
4.108241082410823974e-01
9.840098400984009785e-02
4.132841328413284221e-01
1.008610086100860948e-01
1.008610086100860948e-01
4.157441574415743912e-01
1.045510455104551040e-01
1.057810578105781024e-01
7.306273062730627155e-01
7.306273062730627155e-01
4.194341943419434005e-01
1.057810578105781024e-01
9.840098400984009785e-02
8.487084870848708718e-02
7.503075030750307184e-02
5.535055350553505504e-02
6.642066420664206605e-01
6.432964329643295898e-01
5.399753997539975536e-01
1.697416974169741744e-01
2.041820418204182142e-01
4.858548585485855109e-01
5.867158671586716334e-01
6.642066420664206605e-01
2.865928659286592906e-01
2.115621156211562048e-01
1.771217712177121650e-01
1.328413284132841377e-01
1.094710947109471116e-01
9.717097170971709941e-02
9.102091020910209329e-02
8.733087330873308407e-02
4.046740467404674191e-01
4.034440344403443790e-01
8.118081180811807795e-02
7.872078720787208106e-02
7.626076260762607029e-02
7.380073800738007339e-02
7.380073800738007339e-02
3.972939729397294006e-01
7.134071340713407650e-02
6.765067650676506728e-02
6.888068880688806572e-02
6.642066420664206883e-02
3.911439114391143668e-01
6.150061500615006116e-02
7.158671586715866786e-01
3.874538745387454131e-01
5.781057810578105888e-02
5.535055350553505504e-02
4.674046740467404509e-02
4.182041820418204436e-02
3.813038130381303514e-02
3.444034440344403286e-02
2.829028290282902675e-02
2.337023370233702255e-02
1.722017220172201643e-02
1.353013530135301415e-02
3.579335793357933393e-01
7.035670356703567219e-01
9.840098400984010132e-03
3.554735547355473702e-01
1.230012300123001223e-02
3.554735547355473702e-01
1.476014760147601433e-02
1.968019680196802026e-02
2.460024600246002446e-02
2.952029520295202866e-02
3.198031980319802903e-02
3.813038130381303514e-02
4.428044280442804126e-02
4.797047970479705048e-02
5.412054120541205660e-02
6.150061500615006116e-02
6.765067650676506728e-02
7.257072570725707494e-02
7.749077490774908261e-02
7.995079950799507951e-02
8.610086100861008562e-02
8.856088560885608252e-02
9.102091020910209329e-02
8.979089790897909484e-02
4.022140221402213944e-01
4.022140221402213944e-01
4.022140221402213944e-01
9.102091020910209329e-02
9.102091020910209329e-02
4.009840098400984099e-01
4.009840098400984099e-01
7.109471094710947403e-01
7.109471094710947403e-01
3.997539975399754253e-01
8.856088560885608252e-02
3.985239852398523852e-01
7.084870848708486601e-01
7.084870848708486601e-01
3.972939729397294006e-01
7.011070110701106417e-02
7.134071340713407650e-02
7.134071340713407650e-02
7.134071340713407650e-02
7.011070110701106417e-02
7.626076260762607029e-02
1.574415744157441621e-01
1.611316113161131713e-01
1.660516605166051651e-01
1.722017220172201712e-01
1.795817958179581897e-01
1.857318573185731958e-01
1.906519065190651896e-01
1.943419434194341988e-01
1.980319803198032080e-01
1.955719557195571834e-01
1.918819188191882019e-01
1.845018450184501835e-01
1.771217712177121650e-01
1.672816728167281775e-01
1.635916359163591682e-01
1.611316113161131713e-01
1.574415744157441621e-01
1.525215252152521406e-01
6.912669126691266541e-01
6.863468634686347158e-01
1.771217712177121650e-01
1.783517835178351774e-01
1.795817958179581897e-01
1.832718327183271712e-01
1.734317343173431836e-01
1.722017220172201712e-01
1.709717097170971589e-01
1.697416974169741744e-01
1.992619926199261926e-01
1.709717097170971589e-01
1.722017220172201712e-01
1.734317343173431836e-01
1.845018450184501835e-01
1.845018450184501835e-01
1.869618696186961804e-01
9.348093480934809019e-02
9.594095940959410096e-02
7.158671586715866786e-01
7.183271832718327587e-01
4.083640836408364283e-01
9.594095940959410096e-02
9.594095940959410096e-02
4.083640836408364283e-01
7.207872078720787279e-01
7.207872078720787279e-01
7.207872078720787279e-01
9.963099630996309630e-02
1.008610086100860948e-01
7.109471094710947403e-01
6.888068880688806850e-01
8.733087330873308407e-02
6.051660516605166240e-01
5.682656826568265318e-01
5.313653136531365506e-01
5.006150061500614923e-01
5.596555965559655288e-01
5.830258302583025687e-01
9.717097170971709941e-02
1.180811808118081147e-01
7.527675276752767708e-01
7.429274292742927832e-01
7.330873308733086846e-01
4.120541205412054375e-01
7.207872078720787279e-01
7.195571955719557433e-01
9.348093480934809019e-02
9.348093480934809019e-02
7.158671586715866786e-01
7.158671586715866786e-01
4.034440344403443790e-01
9.102091020910209329e-02
4.022140221402213944e-01
7.134071340713407094e-01
4.009840098400984099e-01
4.009840098400984099e-01
3.997539975399754253e-01
3.997539975399754253e-01
3.985239852398523852e-01
3.985239852398523852e-01
3.972939729397294006e-01
8.364083640836408873e-02
3.960639606396064161e-01
3.960639606396064161e-01
7.084870848708486601e-01
3.936039360393603914e-01
3.936039360393603914e-01
3.936039360393603914e-01
7.035670356703567219e-01
3.911439114391143668e-01
7.872078720787208106e-02
7.503075030750307184e-02
7.134071340713407650e-02
3.800738007380073946e-01
6.396063960639605805e-02
6.027060270602706271e-02
5.904059040590405733e-02
4.797047970479705048e-02
3.702337023370233515e-01
5.166051660516605276e-02
5.166051660516605276e-02
5.412054120541205660e-02
3.726937269372693762e-01
3.726937269372693762e-01
5.658056580565805349e-02
5.658056580565805349e-02
5.781057810578105888e-02
6.273062730627305961e-02
6.765067650676506728e-02
7.257072570725707494e-02
7.626076260762607029e-02
7.995079950799507951e-02
3.886838868388683976e-01
6.961869618696187034e-01
8.364083640836408873e-02
8.610086100861008562e-02
6.986469864698646726e-01
6.986469864698646726e-01
3.936039360393603914e-01
8.979089790897909484e-02
3.960639606396064161e-01
3.960639606396064161e-01
7.011070110701107527e-01
3.948339483394833760e-01
3.948339483394833760e-01
6.998769987699876571e-01
6.974169741697416880e-01
8.610086100861008562e-02
8.610086100861008562e-02
3.899138991389913822e-01
3.899138991389913822e-01
8.733087330873308407e-02
8.733087330873308407e-02
8.856088560885608252e-02
3.911439114391143668e-01
8.610086100861008562e-02
8.241082410824107640e-02
3.886838868388683976e-01
3.886838868388683976e-01
6.937269372693727343e-01
3.886838868388683976e-01
3.886838868388683976e-01
3.886838868388683976e-01
8.118081180811807795e-02
6.986469864698646726e-01
6.986469864698646726e-01
7.872078720787208106e-02
3.899138991389913822e-01
8.364083640836408873e-02
7.060270602706026910e-01
7.060270602706026910e-01
3.948339483394833760e-01
8.118081180811807795e-02
6.961869618696187034e-01
6.961869618696187034e-01
6.974169741697416880e-01
7.023370233702337373e-01
7.060270602706026910e-01
7.060270602706026910e-01
8.118081180811807795e-02
3.923739237392374068e-01
7.035670356703567219e-01
6.986469864698646726e-01
6.949569495694957189e-01
6.900369003690036696e-01
6.863468634686347158e-01
6.826568265682656511e-01
6.765067650676507283e-01
3.739237392373923607e-01
6.691266912669127098e-01
3.677736777367773824e-01
6.666666666666666297e-01
6.703567035670356944e-01
6.777367773677737128e-01
6.838868388683886357e-01
6.875768757687577004e-01
3.813038130381303792e-01
6.961869618696187034e-01
7.872078720787208106e-02
3.936039360393603914e-01
7.121771217712177249e-01
7.146371463714636940e-01
3.997539975399754253e-01
7.995079950799507951e-02
8.364083640836408873e-02
8.856088560885608252e-02
7.207872078720787279e-01
8.856088560885608252e-02
4.059040590405904037e-01
4.059040590405904037e-01
8.610086100861008562e-02
8.610086100861008562e-02
4.046740467404674191e-01
4.071340713407133882e-01
9.348093480934809019e-02
3.997539975399754253e-01
6.801968019680196820e-01
7.749077490774908261e-02
6.039360393603936394e-01
5.645756457564575781e-01
5.239852398523985322e-01
5.129151291512915600e-01
5.621156211562116090e-01
6.125461254612546425e-01
1.094710947109471116e-01
1.045510455104551040e-01
7.564575645756457245e-01
7.453874538745387524e-01
7.380073800738007339e-01
7.318573185731857000e-01
7.257072570725707772e-01
7.257072570725707772e-01
8.364083640836408873e-02
8.364083640836408873e-02
4.022140221402213944e-01
7.244772447724476816e-01
7.207872078720787279e-01
7.207872078720787279e-01
3.997539975399754253e-01
7.872078720787208106e-02
3.985239852398523852e-01
3.972939729397294006e-01
3.972939729397294006e-01
3.972939729397294006e-01
3.960639606396064161e-01
7.380073800738007339e-02
3.948339483394833760e-01
7.158671586715866786e-01
3.936039360393603914e-01
7.134071340713407650e-02
3.923739237392374068e-01
3.923739237392374068e-01
3.899138991389913822e-01
3.886838868388683976e-01
3.874538745387454131e-01
6.396063960639605805e-02
6.396063960639605805e-02
6.027060270602706271e-02
3.800738007380073946e-01
5.658056580565805349e-02
5.166051660516605276e-02
4.674046740467404509e-02
4.428044280442804126e-02
4.182041820418204436e-02
3.665436654366543423e-01
3.665436654366543423e-01
6.937269372693727343e-01
3.936039360393604053e-02
3.677736777367773824e-01
3.936039360393604053e-02
3.677736777367773824e-01
4.305043050430504281e-02
4.674046740467404509e-02
5.166051660516605276e-02
3.763837638376383854e-01
6.986469864698646726e-01
7.011070110701107527e-01
7.072570725707256756e-01
3.874538745387454131e-01
6.888068880688806572e-02
3.899138991389913822e-01
7.134071340713407650e-02
7.380073800738007339e-02
7.503075030750307184e-02
7.749077490774908261e-02
7.872078720787208106e-02
7.158671586715866786e-01
7.158671586715866786e-01
3.972939729397294006e-01
7.872078720787208106e-02
7.872078720787208106e-02
3.960639606396064161e-01
7.134071340713407094e-01
7.134071340713407094e-01
7.134071340713407094e-01
3.948339483394833760e-01
3.948339483394833760e-01
3.936039360393603914e-01
3.936039360393603914e-01
3.936039360393603914e-01
3.936039360393603914e-01
7.109471094710947403e-01
7.109471094710947403e-01
7.380073800738007339e-02
7.380073800738007339e-02
7.380073800738007339e-02
7.626076260762607029e-02
7.749077490774908261e-02
7.109471094710947403e-01
7.109471094710947403e-01
7.109471094710947403e-01
7.109471094710947403e-01
7.109471094710947403e-01
7.109471094710947403e-01
7.749077490774908261e-02
3.960639606396064161e-01
3.960639606396064161e-01
3.960639606396064161e-01
8.118081180811807795e-02
8.118081180811807795e-02
8.118081180811807795e-02
8.118081180811807795e-02
8.118081180811807795e-02
8.118081180811807795e-02
8.118081180811807795e-02
7.134071340713407094e-01
7.146371463714636940e-01
7.158671586715866786e-01
3.997539975399754253e-01
3.997539975399754253e-01
7.183271832718327587e-01
7.207872078720787279e-01
3.997539975399754253e-01
3.985239852398523852e-01
7.134071340713407094e-01
7.109471094710947403e-01
7.060270602706026910e-01
7.380073800738007339e-02
6.986469864698646726e-01
6.924969249692496387e-01
6.888068880688806850e-01
6.027060270602706271e-02
3.677736777367773824e-01
3.677736777367773824e-01
6.851168511685117313e-01
6.900369003690036696e-01
6.949569495694957189e-01
7.035670356703567219e-01
3.813038130381303792e-01
6.765067650676506728e-02
7.011070110701106417e-02
7.170971709717096632e-01
7.207872078720787279e-01
7.257072570725707494e-02
4.022140221402213944e-01
4.022140221402213944e-01
7.380073800738007339e-02
7.380073800738007339e-02
7.380073800738007339e-02
7.380073800738007339e-02
7.380073800738007339e-02
7.380073800738007339e-02
7.380073800738007339e-02
7.380073800738007339e-02
7.380073800738007339e-02
8.118081180811807795e-02
7.232472324723246970e-01
7.072570725707256756e-01
3.788437884378843545e-01
6.359163591635916823e-01
6.027060270602706549e-01
5.719557195571955965e-01
5.190651906519064829e-01
5.301353013530135661e-01
5.633456334563345935e-01
6.211562115621156455e-01
1.033210332103321055e-01
7.589175891758918047e-01
7.552275522755227399e-01
7.416974169741696876e-01
