4.962406015037593709e-01
4.962406015037593709e-01
4.947270774338443644e-01
4.932135533639293024e-01
4.917000292940142958e-01
4.901865052240991782e-01
4.886729811541841717e-01
4.871594570842691097e-01
4.856459330143541031e-01
4.841324089444389855e-01
4.826188848745239790e-01
4.811053608046089169e-01
4.795918367346939104e-01
4.780783126647787928e-01
4.765647885948637863e-01
4.750512645249487242e-01
4.735377404550336622e-01
4.720242163851186001e-01
4.705106923152035936e-01
4.689971682452885871e-01
4.674836441753734695e-01
4.659701201054584629e-01
4.644565960355434009e-01
4.629430719656283943e-01
4.614295478957132768e-01
4.599160238257982702e-01
4.584024997558832082e-01
4.568889756859682016e-01
4.553754516160530841e-01
4.538619275461380775e-01
4.523484034762230155e-01
4.508348794063079534e-01
4.493213553363929469e-01
4.478078312664778848e-01
4.462943071965627673e-01
4.447807831266477607e-01
4.432672590567327542e-01
4.417537349868176921e-01
4.402402109169026856e-01
4.387266868469875680e-01
4.372131627770725615e-01
4.356996387071574994e-01
4.341861146372424929e-01
4.326725905673273753e-01
4.311590664974123688e-01
4.296455424274973067e-01
4.281320183575822447e-01
4.266184942876671826e-01
4.251049702177521761e-01
4.235914461478371695e-01
4.220779220779220520e-01
4.205643980080069899e-01
4.190508739380919834e-01
4.175373498681769768e-01
4.160238257982618593e-01
4.145103017283468527e-01
4.129967776584317907e-01
4.114832535885167841e-01
4.099697295186016666e-01
4.084562054486866600e-01
4.069426813787715980e-01
4.054291573088565359e-01
4.039156332389415294e-01
4.024021091690264673e-01
4.008885850991113498e-01
3.993750610291963432e-01
3.978615369592813367e-01
3.963480128893662746e-01
3.948344888194511570e-01
3.933209647495361505e-01
3.918074406796211440e-01
3.902939166097060819e-01
3.887803925397910754e-01
3.872668684698759578e-01
3.857533443999609513e-01
3.842398203300458892e-01
3.827262962601308272e-01
3.812127721902157651e-01
3.796992481203007586e-01
5.664160401002505951e-01
5.664160401002505951e-01
5.651629072681704224e-01
5.075187969924812581e-01
5.075187969924812581e-01
5.075187969924812581e-01
5.075187969924812581e-01
5.075187969924812581e-01
5.075187969924812581e-01
5.075187969924812581e-01
5.075187969924812581e-01
5.075187969924812581e-01
5.075187969924812581e-01
5.075187969924812581e-01
5.075187969924812581e-01
5.075187969924812581e-01
5.075187969924812581e-01
5.075187969924812581e-01
5.075187969924812581e-01
5.075187969924812581e-01
5.075187969924812581e-01
5.075187969924812581e-01
5.075187969924812581e-01
5.075187969924812581e-01
5.075187969924812581e-01
5.075187969924812581e-01
5.075187969924812581e-01
5.075187969924812581e-01
5.075187969924812581e-01
5.075187969924812581e-01
5.075187969924812581e-01
5.075187969924812581e-01
5.075187969924812581e-01
5.075187969924812581e-01
5.075187969924812581e-01
5.075187969924812581e-01
5.075187969924812581e-01
5.075187969924812581e-01
5.062656641604009744e-01
5.651629072681704224e-01
5.664160401002505951e-01
5.651629072681704224e-01
6.867167919799498366e-01
4.523809523809523836e-01
7.155388471177944743e-01
7.180451127819549306e-01
6.516290726817042245e-02
5.889724310776942029e-02
6.265664160401002158e-02
7.005012531328320691e-01
7.268170426065162504e-02
6.553884711779448535e-01
6.378446115288221030e-01
5.977443609022556892e-01
5.802005012531328276e-01
6.065162907268170089e-01
1.140350877192982393e-01
6.716791979949874314e-01
6.967418546365914400e-01
3.872180451127819611e-01
7.268170426065162504e-02
1.629072681704260561e-01
1.629072681704260561e-01
1.616541353383458557e-01
6.390977443609022202e-02
3.922305764411027629e-01
6.516290726817042245e-02
3.909774436090225347e-01
7.205513784461152760e-01
7.218045112781954487e-01
3.909774436090225347e-01
7.180451127819549306e-01
7.142857142857143016e-01
7.117794486215538452e-01
7.130325814536341289e-01
6.641604010025062288e-02
6.766917293233082331e-02
6.766917293233082331e-02
3.922305764411027629e-01
7.167919799498746469e-01
7.117794486215538452e-01
7.092731829573934998e-01
7.067669172932330435e-01
7.067669172932330435e-01
7.067669172932330435e-01
7.092731829573934998e-01
7.080200501253133272e-01
7.067669172932330435e-01
7.042606516290726981e-01
3.771929824561403577e-01
5.012531328320801727e-02
6.992481203007518964e-01
3.734335839598997286e-01
3.696741854636591551e-01
3.684210526315789269e-01
6.854636591478696639e-01
6.842105263157894912e-01
3.621553884711779525e-01
6.842105263157894912e-01
6.829573934837093185e-01
6.817042606516290348e-01
6.791979949874686895e-01
6.779448621553885168e-01
6.729323308270677151e-01
6.704260651629072587e-01
6.666666666666666297e-01
3.533834586466165217e-01
6.629072681704261116e-01
6.616541353383458279e-01
6.578947368421053099e-01
4.260651629072681468e-02
3.496240601503759482e-01
3.496240601503759482e-01
3.508771929824561209e-01
4.636591478696741597e-02
4.887218045112781684e-02
6.591478696741854826e-01
6.666666666666666297e-01
6.704260651629072587e-01
6.754385964912280604e-01
6.766917293233082331e-01
6.804511278195488622e-01
6.854636591478696639e-01
6.892230576441102929e-01
3.646616541353383534e-01
3.646616541353383534e-01
3.634085213032581252e-01
3.759398496240601295e-02
3.634085213032581252e-02
6.917293233082706383e-01
6.917293233082706383e-01
3.646616541353383534e-01
3.759398496240601295e-02
6.942355889724310947e-01
7.017543859649122417e-01
7.042606516290726981e-01
7.055137844611528708e-01
6.979949874686717237e-01
3.634085213032581252e-02
3.258145363408521122e-02
6.967418546365914400e-01
6.942355889724310947e-01
4.010025062656641381e-02
6.979949874686717237e-01
3.721804511278195560e-01
6.992481203007518964e-01
6.992481203007518964e-01
3.709273182957393278e-01
4.135338345864661425e-02
4.135338345864661425e-02
7.042606516290726981e-01
7.067669172932330435e-01
3.759398496240601295e-01
3.759398496240601295e-01
4.511278195488721554e-02
3.771929824561403577e-01
3.771929824561403577e-01
3.771929824561403577e-01
7.080200501253133272e-01
7.080200501253133272e-01
7.080200501253133272e-01
4.761904761904761640e-02
3.796992481203007586e-01
3.809523809523809312e-01
5.137844611528821770e-02
5.012531328320801727e-02
5.513784461152881899e-02
6.015037593984962072e-02
3.897243107769423620e-01
6.015037593984962072e-02
3.897243107769423620e-01
3.897243107769423620e-01
7.167919799498746469e-01
7.180451127819549306e-01
7.192982456140351033e-01
3.884711779448621338e-01
7.167919799498746469e-01
3.847117794486215603e-01
3.834586466165413321e-01
5.513784461152881899e-02
5.263157894736841813e-02
4.887218045112781684e-02
3.796992481203007586e-01
7.130325814536341289e-01
7.130325814536341289e-01
6.265664160401002158e-02
6.265664160401002158e-02
5.639097744360901943e-02
5.263157894736841813e-02
7.142857142857143016e-01
3.834586466165413321e-01
5.263157894736841813e-02
5.263157894736841813e-02
3.834586466165413321e-01
5.513784461152881899e-02
5.513784461152881899e-02
3.847117794486215603e-01
3.834586466165413321e-01
5.012531328320801727e-02
4.887218045112781684e-02
4.385964912280701511e-02
7.092731829573934998e-01
7.092731829573934998e-01
7.105263157894736725e-01
7.105263157894736725e-01
7.117794486215538452e-01
7.092731829573934998e-01
7.067669172932330435e-01
7.067669172932330435e-01
4.636591478696741597e-02
4.511278195488721554e-02
4.385964912280701511e-02
3.709273182957393278e-01
6.979949874686717237e-01
6.967418546365914400e-01
3.634085213032581252e-02
6.842105263157894912e-01
6.817042606516290348e-01
6.804511278195488622e-01
3.571428571428571508e-01
3.583959899749373235e-01
6.817042606516290348e-01
6.867167919799498366e-01
3.659147869674185261e-01
4.511278195488721554e-02
4.636591478696741597e-02
4.385964912280701511e-02
3.258145363408521122e-02
2.882205513784460993e-02
2.756892230576440950e-02
6.917293233082706383e-01
3.007518796992481036e-02
3.634085213032581252e-01
3.258145363408521122e-02
6.967418546365914400e-01
6.992481203007518964e-01
3.709273182957393278e-01
3.721804511278195560e-01
7.030075187969925254e-01
5.263157894736841813e-02
6.942355889724310947e-01
6.829573934837093185e-01
6.691729323308270860e-01
6.353383458646616466e-01
6.077694235588972926e-01
5.802005012531328276e-01
5.814536340852130003e-01
6.002506265664160345e-01
9.147869674185463151e-02
3.634085213032581252e-01
6.854636591478696639e-01
3.721804511278195560e-01
5.012531328320801727e-02
7.067669172932330435e-01
7.067669172932330435e-01
7.092731829573934998e-01
7.142857142857143016e-01
7.142857142857143016e-01
7.142857142857143016e-01
3.822055137844611594e-01
5.263157894736841813e-02
5.012531328320801727e-02
3.796992481203007586e-01
4.761904761904761640e-02
4.761904761904761640e-02
4.761904761904761640e-02
3.809523809523809312e-01
3.822055137844611594e-01
5.513784461152881899e-02
5.639097744360901943e-02
5.764411027568921986e-02
3.834586466165413321e-01
5.764411027568921986e-02
5.764411027568921986e-02
5.263157894736841813e-02
5.012531328320801727e-02
2.155388471177944743e-01
3.809523809523809312e-01
7.092731829573934998e-01
3.796992481203007586e-01
7.067669172932330435e-01
7.067669172932330435e-01
3.809523809523809312e-01
3.784461152882205304e-01
7.005012531328320691e-01
6.979949874686717237e-01
3.746867167919799568e-01
6.967418546365914400e-01
3.771929824561403577e-01
6.979949874686717237e-01
6.979949874686717237e-01
6.015037593984962072e-02
6.015037593984962072e-02
3.796992481203007586e-01
6.265664160401002158e-02
3.822055137844611594e-01
6.979949874686717237e-01
6.979949874686717237e-01
6.917293233082706383e-01
8.646616541353382979e-02
8.646616541353382979e-02
9.022556390977443108e-02
3.959899749373433364e-01
3.959899749373433364e-01
3.959899749373433364e-01
6.992481203007518964e-01
8.521303258145362935e-02
8.020050125313282763e-02
3.847117794486215603e-01
3.847117794486215603e-01
3.847117794486215603e-01
7.005012531328320691e-01
7.042606516290726981e-01
7.080200501253133272e-01
7.117794486215538452e-01
7.142857142857143016e-01
7.218045112781954487e-01
3.959899749373433364e-01
7.268170426065162504e-01
7.293233082706767068e-01
8.508771929824561209e-01
9.686716791979950170e-01
9.686716791979950170e-01
8.533834586466165772e-01
8.533834586466165772e-01
9.686716791979950170e-01
9.699248120300751896e-01
9.686716791979950170e-01
9.711779448621553623e-01
9.761904761904761640e-01
9.774436090225563367e-01
9.761904761904761640e-01
7.318295739348370521e-01
7.293233082706767068e-01
7.293233082706767068e-01
7.318295739348370521e-01
7.343358395989975085e-01
9.711779448621553623e-01
9.736842105263158187e-01
9.736842105263158187e-01
9.699248120300751896e-01
8.521303258145362935e-01
7.368421052631578538e-01
7.355889724310776812e-01
9.674185463659147333e-01
9.674185463659147333e-01
9.686716791979950170e-01
9.711779448621553623e-01
9.812030075187969658e-01
9.812030075187969658e-01
8.659147869674185261e-01
7.243107769423559050e-01
7.218045112781954487e-01
7.230576441102757324e-01
7.268170426065162504e-01
6.390977443609022202e-02
9.912280701754385692e-01
9.912280701754385692e-01
9.912280701754385692e-01
7.293233082706767068e-01
7.268170426065162504e-01
7.255639097744360777e-01
7.268170426065162504e-01
7.268170426065162504e-01
7.268170426065162504e-01
7.255639097744360777e-01
3.959899749373433364e-01
9.887218045112782239e-01
9.924812030075187419e-01
9.962406015037593709e-01
7.293233082706767068e-01
3.922305764411027629e-01
6.390977443609022202e-02
5.764411027568921986e-02
7.155388471177944743e-01
7.155388471177944743e-01
7.155388471177944743e-01
7.155388471177944743e-01
9.912280701754385692e-01
9.937343358395990256e-01
9.974937343358395436e-01
3.796992481203007586e-01
3.796992481203007586e-01
3.796992481203007586e-01
7.117794486215538452e-01
7.117794486215538452e-01
9.899749373433583965e-01
9.899749373433583965e-01
9.899749373433583965e-01
7.180451127819549306e-01
7.192982456140351033e-01
7.205513784461152760e-01
7.192982456140351033e-01
7.192982456140351033e-01
7.192982456140351033e-01
7.092731829573934998e-01
7.042606516290726981e-01
9.924812030075187419e-01
9.924812030075187419e-01
9.899749373433583965e-01
7.067669172932330435e-01
7.117794486215538452e-01
7.105263157894736725e-01
7.080200501253133272e-01
7.017543859649122417e-01
7.017543859649122417e-01
7.005012531328320691e-01
7.055137844611528708e-01
9.849624060150375948e-01
9.862155388471177675e-01
9.962406015037593709e-01
4.010025062656641381e-02
4.511278195488721554e-02
4.887218045112781684e-02
5.388471177944861856e-02
6.942355889724310947e-01
7.005012531328320691e-01
9.924812030075187419e-01
8.458646616541353191e-01
9.786967418546366204e-01
9.699248120300751896e-01
7.192982456140351033e-01
7.167919799498746469e-01
7.080200501253133272e-01
3.746867167919799568e-01
7.080200501253133272e-01
9.849624060150375948e-01
9.862155388471177675e-01
9.812030075187969658e-01
7.167919799498746469e-01
7.155388471177944743e-01
7.042606516290726981e-01
6.879699248120301203e-01
6.829573934837093185e-01
4.385964912280701511e-02
6.365914786967418193e-01
6.077694235588972926e-01
5.764411027568921986e-01
5.814536340852130003e-01
5.927318295739348875e-01
8.646616541353382979e-02
6.679197994987469134e-01
4.887218045112781684e-02
5.388471177944861856e-02
5.764411027568921986e-02
5.513784461152881899e-02
3.809523809523809312e-01
3.809523809523809312e-01
3.809523809523809312e-01
7.117794486215538452e-01
7.117794486215538452e-01
3.796992481203007586e-01
7.092731829573934998e-01
3.784461152882205304e-01
3.784461152882205304e-01
3.784461152882205304e-01
7.067669172932330435e-01
6.979949874686717237e-01
3.696741854636591551e-01
3.671679197994987542e-01
6.967418546365914400e-01
7.030075187969925254e-01
7.067669172932330435e-01
7.092731829573934998e-01
7.092731829573934998e-01
5.012531328320801727e-02
3.784461152882205304e-01
7.067669172932330435e-01
5.012531328320801727e-02
3.771929824561403577e-01
3.746867167919799568e-01
4.761904761904761640e-02
6.967418546365914400e-01
4.260651629072681468e-02
4.761904761904761640e-02
4.887218045112781684e-02
4.761904761904761640e-02
4.511278195488721554e-02
6.942355889724310947e-01
6.942355889724310947e-01
3.709273182957393278e-01
6.904761904761904656e-01
6.892230576441102929e-01
6.854636591478696639e-01
6.829573934837093185e-01
5.012531328320801727e-02
3.646616541353383534e-01
3.646616541353383534e-01
3.659147869674185261e-01
5.513784461152881899e-02
5.889724310776942029e-02
6.390977443609022202e-02
6.766917293233082331e-01
3.709273182957393278e-01
6.390977443609022202e-02
6.766917293233082331e-02
3.696741854636591551e-01
6.390977443609022202e-02
5.889724310776942029e-02
5.388471177944861856e-02
5.263157894736841813e-02
5.388471177944861856e-02
5.137844611528821770e-02
4.636591478696741597e-02
4.135338345864661425e-02
6.879699248120301203e-01
6.879699248120301203e-01
6.867167919799498366e-01
3.609022556390977243e-01
6.842105263157894912e-01
3.609022556390977243e-01
3.383458646616541166e-02
3.132832080200501079e-02
3.583959899749373235e-01
3.007518796992481036e-02
3.571428571428571508e-01
3.571428571428571508e-01
3.571428571428571508e-01
3.571428571428571508e-01
2.756892230576440950e-02
2.380952380952380820e-02
3.446115288220551465e-01
3.446115288220551465e-01
3.446115288220551465e-01
3.446115288220551465e-01
3.446115288220551465e-01
3.446115288220551465e-01
6.766917293233082331e-01
6.754385964912280604e-01
5.764411027568921986e-02
5.889724310776942029e-02
5.764411027568921986e-02
5.764411027568921986e-02
5.639097744360901943e-02
5.764411027568921986e-02
1.804511278195488622e-01
1.754385964912280604e-01
1.741854636591478600e-01
1.679197994987468578e-01
1.691729323308270583e-01
1.679197994987468578e-01
1.666666666666666574e-01
1.679197994987468578e-01
1.666666666666666574e-01
1.666666666666666574e-01
1.666666666666666574e-01
1.716791979949874591e-01
1.741854636591478600e-01
1.766917293233082609e-01
3.621553884711779525e-01
6.892230576441102929e-01
4.147869674185463706e-01
1.378446115288220475e-01
1.441102756892230496e-01
1.478696741854636509e-01
1.566416040100250540e-01
1.654135338345864570e-01
1.704260651629072587e-01
1.754385964912280604e-01
1.817042606516290626e-01
1.867167919799498643e-01
1.867167919799498643e-01
1.804511278195488622e-01
1.766917293233082609e-01
1.704260651629072587e-01
1.641604010025062566e-01
1.578947368421052544e-01
1.503759398496240518e-01
1.478696741854636509e-01
1.441102756892230496e-01
1.403508771929824483e-01
3.007518796992481036e-02
3.007518796992481036e-02
3.571428571428571508e-01
1.867167919799498643e-01
1.641604010025062566e-01
1.641604010025062566e-01
1.654135338345864570e-01
1.503759398496240518e-01
1.503759398496240518e-01
1.403508771929824483e-01
1.403508771929824483e-01
1.503759398496240518e-01
1.604010025062656553e-01
1.616541353383458557e-01
1.616541353383458557e-01
1.516290726817042522e-01
1.390977443609022479e-01
6.766917293233082331e-01
6.766917293233082331e-01
3.508771929824561209e-01
2.130325814536340734e-02
2.255639097744360777e-02
2.255639097744360777e-02
3.496240601503759482e-01
6.716791979949874314e-01
6.716791979949874314e-01
6.666666666666666297e-01
6.616541353383458279e-01
6.528822055137845082e-01
3.320802005012531422e-01
3.295739348370927413e-01
3.320802005012531422e-01
6.553884711779448535e-01
6.591478696741854826e-01
6.641604010025062843e-01
6.691729323308270860e-01
3.483709273182957200e-01
6.766917293233082331e-01
2.506265664160400863e-02
3.521303258145363491e-01
6.791979949874686895e-01
6.791979949874686895e-01
6.791979949874686895e-01
3.558897243107769226e-01
6.842105263157894912e-01
6.867167919799498366e-01
6.867167919799498366e-01
6.867167919799498366e-01
4.010025062656641381e-02
6.942355889724310947e-01
6.741854636591478878e-01
6.666666666666666297e-01
6.591478696741854826e-01
6.378446115288221030e-01
5.964912280701754055e-01
5.676691729323308788e-01
5.538847117794486463e-01
5.676691729323308788e-01
6.240601503759398705e-01
6.528822055137845082e-01
3.521303258145363491e-01
4.010025062656641381e-02
4.010025062656641381e-02
6.817042606516290348e-01
3.583959899749373235e-01
6.804511278195488622e-01
6.892230576441102929e-01
6.892230576441102929e-01
6.904761904761904656e-01
6.842105263157894912e-01
3.596491228070175517e-01
6.867167919799498366e-01
3.609022556390977243e-01
6.892230576441102929e-01
3.634085213032581252e-02
3.646616541353383534e-01
6.917293233082706383e-01
6.917293233082706383e-01
6.917293233082706383e-01
6.917293233082706383e-01
6.867167919799498366e-01
6.842105263157894912e-01
3.596491228070175517e-01
3.258145363408521122e-02
3.571428571428571508e-01
3.558897243107769226e-01
6.779448621553885168e-01
6.766917293233082331e-01
6.766917293233082331e-01
2.756892230576440950e-02
2.882205513784460993e-02
3.546365914786967499e-01
3.558897243107769226e-01
3.571428571428571508e-01
6.817042606516290348e-01
3.571428571428571508e-01
3.258145363408521122e-02
3.596491228070175517e-01
6.842105263157894912e-01
6.879699248120301203e-01
6.791979949874686895e-01
6.779448621553885168e-01
6.766917293233082331e-01
6.716791979949874314e-01
6.704260651629072587e-01
6.691729323308270860e-01
3.571428571428571508e-01
3.609022556390977243e-01
6.741854636591478878e-01
3.583959899749373235e-01
6.691729323308270860e-01
6.704260651629072587e-01
4.010025062656641381e-02
3.533834586466165217e-01
6.641604010025062843e-01
6.641604010025062843e-01
6.654135338345864570e-01
6.691729323308270860e-01
6.729323308270677151e-01
6.754385964912280604e-01
6.804511278195488622e-01
6.829573934837093185e-01
6.842105263157894912e-01
6.892230576441102929e-01
4.636591478696741597e-02
3.684210526315789269e-01
6.942355889724310947e-01
6.967418546365914400e-01
7.042606516290726981e-01
7.092731829573934998e-01
3.847117794486215603e-01
5.764411027568921986e-02
5.764411027568921986e-02
5.764411027568921986e-02
7.142857142857143016e-01
3.872180451127819611e-01
6.015037593984962072e-02
6.015037593984962072e-02
5.639097744360901943e-02
7.117794486215538452e-01
7.130325814536341289e-01
7.142857142857143016e-01
7.142857142857143016e-01
7.142857142857143016e-01
7.117794486215538452e-01
7.092731829573934998e-01
7.080200501253133272e-01
7.092731829573934998e-01
9.824561403508771384e-01
9.812030075187969658e-01
9.837092731829574221e-01
4.511278195488721554e-02
3.709273182957393278e-01
4.511278195488721554e-02
6.967418546365914400e-01
6.967418546365914400e-01
3.721804511278195560e-01
3.721804511278195560e-01
3.721804511278195560e-01
9.887218045112782239e-01
9.849624060150375948e-01
9.874686716791979402e-01
9.849624060150375948e-01
9.711779448621553623e-01
7.030075187969925254e-01
7.055137844611528708e-01
7.017543859649122417e-01
7.017543859649122417e-01
7.017543859649122417e-01
7.055137844611528708e-01
9.699248120300751896e-01
9.799498746867167931e-01
9.862155388471177675e-01
9.849624060150375948e-01
9.849624060150375948e-01
3.796992481203007586e-01
3.771929824561403577e-01
3.759398496240601295e-01
4.887218045112781684e-02
9.912280701754385692e-01
9.912280701754385692e-01
9.912280701754385692e-01
7.105263157894736725e-01
7.092731829573934998e-01
7.130325814536341289e-01
7.130325814536341289e-01
7.105263157894736725e-01
7.105263157894736725e-01
7.105263157894736725e-01
7.105263157894736725e-01
9.912280701754385692e-01
9.937343358395990256e-01
9.962406015037593709e-01
7.080200501253133272e-01
7.080200501253133272e-01
7.105263157894736725e-01
7.117794486215538452e-01
7.092731829573934998e-01
7.105263157894736725e-01
7.080200501253133272e-01
7.092731829573934998e-01
9.874686716791979402e-01
9.887218045112782239e-01
9.949874686716791983e-01
3.897243107769423620e-01
3.897243107769423620e-01
3.884711779448621338e-01
3.884711779448621338e-01
3.872180451127819611e-01
9.899749373433583965e-01
9.899749373433583965e-01
9.924812030075187419e-01
7.130325814536341289e-01
7.105263157894736725e-01
7.092731829573934998e-01
7.055137844611528708e-01
6.992481203007518964e-01
6.904761904761904656e-01
6.879699248120301203e-01
6.917293233082706383e-01
9.912280701754385692e-01
9.899749373433583965e-01
9.874686716791979402e-01
6.967418546365914400e-01
7.067669172932330435e-01
7.080200501253133272e-01
7.117794486215538452e-01
7.117794486215538452e-01
7.130325814536341289e-01
7.117794486215538452e-01
9.812030075187969658e-01
9.937343358395990256e-01
9.924812030075187419e-01
7.092731829573934998e-01
5.012531328320801727e-02
3.734335839598997286e-01
7.042606516290726981e-01
7.042606516290726981e-01
7.030075187969925254e-01
6.942355889724310947e-01
6.929824561403509220e-01
6.716791979949874314e-01
6.328320802005013013e-01
5.964912280701754055e-01
5.764411027568921986e-01
5.827067669172932840e-01
6.315789473684210176e-01
6.641604010025062843e-01
6.779448621553885168e-01
7.055137844611528708e-01
9.887218045112782239e-01
9.899749373433583965e-01
6.979949874686717237e-01
6.892230576441102929e-01
6.917293233082706383e-01
6.929824561403509220e-01
6.992481203007518964e-01
7.042606516290726981e-01
7.030075187969925254e-01
8.408521303258145174e-01
9.924812030075187419e-01
9.949874686716791983e-01
9.949874686716791983e-01
7.017543859649122417e-01
7.042606516290726981e-01
7.067669172932330435e-01
7.092731829573934998e-01
7.105263157894736725e-01
7.167919799498746469e-01
7.155388471177944743e-01
9.887218045112782239e-01
9.862155388471177675e-01
9.899749373433583965e-01
7.518796992481202590e-02
7.192982456140351033e-01
7.192982456140351033e-01
7.230576441102757324e-01
7.255639097744360777e-01
9.699248120300751896e-01
9.699248120300751896e-01
9.761904761904761640e-01
9.849624060150375948e-01
9.924812030075187419e-01
9.949874686716791983e-01
7.355889724310776812e-01
7.318295739348370521e-01
7.268170426065162504e-01
7.280701754385965341e-01
1.000000000000000000e+00
9.949874686716791983e-01
9.887218045112782239e-01
9.824561403508771384e-01
9.749373433583959914e-01
9.699248120300751896e-01
7.192982456140351033e-01
7.180451127819549306e-01
7.894736842105262720e-02
7.142857142857143016e-01
3.972431077694235646e-01
3.972431077694235646e-01
8.145363408521302806e-02
3.984962406015037373e-01
7.117794486215538452e-01
7.067669172932330435e-01
7.042606516290726981e-01
7.042606516290726981e-01
7.080200501253133272e-01
7.117794486215538452e-01
7.142857142857143016e-01
7.167919799498746469e-01
7.167919799498746469e-01
7.142857142857143016e-01
7.155388471177944743e-01
7.218045112781954487e-01
7.218045112781954487e-01
4.072681704260651681e-01
8.771929824561403022e-02
4.085213032581453407e-01
7.368421052631578538e-01
7.393483709273183102e-01
7.355889724310776812e-01
7.368421052631578538e-01
7.368421052631578538e-01
9.523809523809523281e-02
4.210526315789473450e-01
4.210526315789473450e-01
7.468671679197994573e-01
4.197994987468671724e-01
7.468671679197994573e-01
1.027568922305764354e-01
4.285714285714285476e-01
1.027568922305764354e-01
9.774436090225563367e-02
4.172932330827067715e-01
4.160401002506265433e-01
7.431077694235589393e-01
4.122807017543859698e-01
4.110275689223057416e-01
7.318295739348370521e-01
7.318295739348370521e-01
7.318295739348370521e-01
7.418546365914786556e-01
7.443609022556391119e-01
7.393483709273183102e-01
7.368421052631578538e-01
7.368421052631578538e-01
7.305764411027568794e-01
7.330827067669173358e-01
7.343358395989975085e-01
7.443609022556391119e-01
4.160401002506265433e-01
7.418546365914786556e-01
4.160401002506265433e-01
9.022556390977443108e-02
4.172932330827067715e-01
9.273182957393483195e-02
9.523809523809523281e-02
4.172932330827067715e-01
7.343358395989975085e-01
7.318295739348370521e-01
4.060150375939849399e-01
7.318295739348370521e-01
7.318295739348370521e-01
7.393483709273183102e-01
7.393483709273183102e-01
4.147869674185463706e-01
8.771929824561403022e-02
8.771929824561403022e-02
7.418546365914786556e-01
7.418546365914786556e-01
4.135338345864661425e-01
4.135338345864661425e-01
4.135338345864661425e-01
4.135338345864661425e-01
4.135338345864661425e-01
7.431077694235589393e-01
4.122807017543859698e-01
4.122807017543859698e-01
4.110275689223057416e-01
4.110275689223057416e-01
4.097744360902255689e-01
8.270676691729322849e-02
4.085213032581453407e-01
7.343358395989975085e-01
4.072681704260651681e-01
4.072681704260651681e-01
4.085213032581453407e-01
4.097744360902255689e-01
4.097744360902255689e-01
4.097744360902255689e-01
4.085213032581453407e-01
7.305764411027568794e-01
7.293233082706767068e-01
4.047619047619047672e-01
7.305764411027568794e-01
7.305764411027568794e-01
7.305764411027568794e-01
8.521303258145362935e-02
4.072681704260651681e-01
7.293233082706767068e-01
4.060150375939849399e-01
4.060150375939849399e-01
4.060150375939849399e-01
4.085213032581453407e-01
7.318295739348370521e-01
4.122807017543859698e-01
7.368421052631578538e-01
7.406015037593984829e-01
9.523809523809523281e-02
4.223057644110275732e-01
4.223057644110275732e-01
9.523809523809523281e-02
7.493734335839599137e-01
7.431077694235589393e-01
7.418546365914786556e-01
4.147869674185463706e-01
4.147869674185463706e-01
8.771929824561403022e-02
4.085213032581453407e-01
7.130325814536341289e-01
7.005012531328320691e-01
6.904761904761904656e-01
6.604010025062656553e-01
6.165413533834586124e-01
6.102756892230576380e-01
6.203007518796992414e-01
6.591478696741854826e-01
6.867167919799498366e-01
6.967418546365914400e-01
7.393483709273182547e-02
8.270676691729322849e-02
4.085213032581453407e-01
8.521303258145362935e-02
8.270676691729322849e-02
4.085213032581453407e-01
8.395989974937342892e-02
8.521303258145362935e-02
7.343358395989975085e-01
7.293233082706767068e-01
7.243107769423559050e-01
7.255639097744360777e-01
3.997493734335839655e-01
7.243107769423559050e-01
7.280701754385965341e-01
7.305764411027568794e-01
7.318295739348370521e-01
8.020050125313282763e-02
4.047619047619047672e-01
4.047619047619047672e-01
4.035087719298245390e-01
5.639097744360901943e-02
5.639097744360901943e-02
5.639097744360901943e-02
5.388471177944861856e-02
5.639097744360901943e-02
5.764411027568921986e-02
1.453634085213032501e-01
1.528822055137844527e-01
1.591478696741854548e-01
1.604010025062656553e-01
1.666666666666666574e-01
1.716791979949874591e-01
1.804511278195488622e-01
1.829573934837092630e-01
1.867167919799498643e-01
1.842105263157894635e-01
1.804511278195488622e-01
1.704260651629072587e-01
1.641604010025062566e-01
1.604010025062656553e-01
1.528822055137844527e-01
1.478696741854636509e-01
1.428571428571428492e-01
1.390977443609022479e-01
3.621553884711779525e-01
1.378446115288220475e-02
1.854636591478696639e-01
1.829573934837092630e-01
1.641604010025062566e-01
1.879699248120300648e-01
1.629072681704260561e-01
1.604010025062656553e-01
1.616541353383458557e-01
1.629072681704260561e-01
1.616541353383458557e-01
1.641604010025062566e-01
1.741854636591478600e-01
1.666666666666666574e-01
1.666666666666666574e-01
1.616541353383458557e-01
1.779448621553884613e-01
7.167919799498746469e-01
7.180451127819549306e-01
7.230576441102757324e-01
7.218045112781954487e-01
3.834586466165413321e-01
4.761904761904761640e-02
5.263157894736841813e-02
5.639097744360901943e-02
3.934837092731829356e-01
7.293233082706767068e-01
3.947368421052631637e-01
7.318295739348370521e-01
7.330827067669173358e-01
7.343358395989975085e-01
7.343358395989975085e-01
7.355889724310776812e-01
7.393483709273183102e-01
5.513784461152881899e-02
5.513784461152881899e-02
3.959899749373433364e-01
7.368421052631578538e-01
5.263157894736841813e-02
5.263157894736841813e-02
5.263157894736841813e-02
3.934837092731829356e-01
3.934837092731829356e-01
5.012531328320801727e-02
3.934837092731829356e-01
3.934837092731829356e-01
3.934837092731829356e-01
3.934837092731829356e-01
5.012531328320801727e-02
5.012531328320801727e-02
5.012531328320801727e-02
3.947368421052631637e-01
4.887218045112781684e-02
5.012531328320801727e-02
7.418546365914786556e-01
3.959899749373433364e-01
7.443609022556391119e-01
7.418546365914786556e-01
7.393483709273183102e-01
7.368421052631578538e-01
3.934837092731829356e-01
3.947368421052631637e-01
7.368421052631578538e-01
7.380952380952381375e-01
7.418546365914786556e-01
7.418546365914786556e-01
7.418546365914786556e-01
7.418546365914786556e-01
3.984962406015037373e-01
3.984962406015037373e-01
7.443609022556391119e-01
7.456140350877192846e-01
4.022556390977443663e-01
4.022556390977443663e-01
7.468671679197994573e-01
4.010025062656641381e-01
4.010025062656641381e-01
3.997493734335839655e-01
7.431077694235589393e-01
7.443609022556391119e-01
7.468671679197994573e-01
7.468671679197994573e-01
4.010025062656641381e-01
3.997493734335839655e-01
7.406015037593984829e-01
7.456140350877192846e-01
7.456140350877192846e-01
7.418546365914786556e-01
7.380952380952381375e-01
7.418546365914786556e-01
7.380952380952381375e-01
7.368421052631578538e-01
7.431077694235589393e-01
7.468671679197994573e-01
4.035087719298245390e-01
5.263157894736841813e-02
4.010025062656641381e-01
4.022556390977443663e-01
7.443609022556391119e-01
7.418546365914786556e-01
3.959899749373433364e-01
3.934837092731829356e-01
7.305764411027568794e-01
3.884711779448621338e-01
4.511278195488721554e-02
4.260651629072681468e-02
3.847117794486215603e-01
4.260651629072681468e-02
7.293233082706767068e-01
3.884711779448621338e-01
7.368421052631578538e-01
7.368421052631578538e-01
3.947368421052631637e-01
7.406015037593984829e-01
7.456140350877192846e-01
7.506265664160400863e-01
7.543859649122807154e-01
7.518796992481202590e-01
4.022556390977443663e-01
4.022556390977443663e-01
7.518796992481202590e-01
7.531328320802005427e-01
7.543859649122807154e-01
4.035087719298245390e-01
5.137844611528821770e-02
5.137844611528821770e-02
3.759398496240601295e-02
1.378446115288220475e-02
1.503759398496240518e-02
6.929824561403509220e-01
6.654135338345864570e-01
6.378446115288221030e-01
6.240601503759398705e-01
1.253132832080200432e-01
1.177944862155388406e-01
1.854636591478696639e-01
1.704260651629072587e-01
9.147869674185463151e-02
7.518796992481202590e-02
6.015037593984962072e-02
3.984962406015037373e-01
7.443609022556391119e-01
5.012531328320801727e-02
3.959899749373433364e-01
3.947368421052631637e-01
3.947368421052631637e-01
4.761904761904761640e-02
4.761904761904761640e-02
3.934837092731829356e-01
3.934837092731829356e-01
3.934837092731829356e-01
4.511278195488721554e-02
4.511278195488721554e-02
7.368421052631578538e-01
7.368421052631578538e-01
4.260651629072681468e-02
4.260651629072681468e-02
4.260651629072681468e-02
3.884711779448621338e-01
3.884711779448621338e-01
7.343358395989975085e-01
3.872180451127819611e-01
4.010025062656641381e-02
3.759398496240601295e-02
7.343358395989975085e-01
3.859649122807017330e-01
7.343358395989975085e-01
7.293233082706767068e-01
3.809523809523809312e-01
7.243107769423559050e-01
3.771929824561403577e-01
7.243107769423559050e-01
7.205513784461152760e-01
7.167919799498746469e-01
3.696741854636591551e-01
1.879699248120300648e-02
1.378446115288220475e-02
1.503759398496240518e-02
7.142857142857143016e-01
7.092731829573934998e-01
7.067669172932330435e-01
7.042606516290726981e-01
5.012531328320801727e-03
3.508771929824561209e-01
0.000000000000000000e+00
3.483709273182957200e-01
6.954887218045112673e-01
6.929824561403509220e-01
3.446115288220551465e-01
3.446115288220551465e-01
3.446115288220551465e-01
3.446115288220551465e-01
3.759398496240601295e-03
8.771929824561403022e-03
1.378446115288220475e-02
1.879699248120300648e-02
3.583959899749373235e-01
3.634085213032581252e-01
3.684210526315789269e-01
3.759398496240601295e-02
4.135338345864661425e-02
4.636591478696741597e-02
3.822055137844611594e-01
3.847117794486215603e-01
3.847117794486215603e-01
3.847117794486215603e-01
7.155388471177944743e-01
7.192982456140351033e-01
7.230576441102757324e-01
5.764411027568921986e-02
5.764411027568921986e-02
3.934837092731829356e-01
6.015037593984962072e-02
6.015037593984962072e-02
3.947368421052631637e-01
3.947368421052631637e-01
3.947368421052631637e-01
5.764411027568921986e-02
3.934837092731829356e-01
3.934837092731829356e-01
5.764411027568921986e-02
3.922305764411027629e-01
3.922305764411027629e-01
5.513784461152881899e-02
5.513784461152881899e-02
3.922305764411027629e-01
5.764411027568921986e-02
5.764411027568921986e-02
3.934837092731829356e-01
7.293233082706767068e-01
7.293233082706767068e-01
3.934837092731829356e-01
3.934837092731829356e-01
3.934837092731829356e-01
3.934837092731829356e-01
3.934837092731829356e-01
7.293233082706767068e-01
7.293233082706767068e-01
3.922305764411027629e-01
5.513784461152881899e-02
3.922305764411027629e-01
7.293233082706767068e-01
3.934837092731829356e-01
5.764411027568921986e-02
3.934837092731829356e-01
6.015037593984962072e-02
5.764411027568921986e-02
6.265664160401002158e-02
6.265664160401002158e-02
7.192982456140351033e-01
7.192982456140351033e-01
3.909774436090225347e-01
3.897243107769423620e-01
6.516290726817042245e-02
6.516290726817042245e-02
2.274436090225563922e-01
3.897243107769423620e-01
7.080200501253133272e-01
7.067669172932330435e-01
7.080200501253133272e-01
7.092731829573934998e-01
7.067669172932330435e-01
3.872180451127819611e-01
7.268170426065162504e-02
3.872180451127819611e-01
3.872180451127819611e-01
3.859649122807017330e-01
7.268170426065162504e-02
3.847117794486215603e-01
7.268170426065162504e-02
7.268170426065162504e-02
7.268170426065162504e-02
3.859649122807017330e-01
3.859649122807017330e-01
6.992481203007518964e-01
3.872180451127819611e-01
3.872180451127819611e-01
6.992481203007518964e-01
6.979949874686717237e-01
3.859649122807017330e-01
3.872180451127819611e-01
7.017543859649122417e-01
6.967418546365914400e-01
6.929824561403509220e-01
6.879699248120301203e-01
7.142857142857142461e-02
6.892230576441102374e-02
6.804511278195488622e-01
6.791979949874686895e-01
6.741854636591478878e-01
6.265664160401002158e-02
6.892230576441102374e-02
7.393483709273182547e-02
6.766917293233082331e-01
6.879699248120301203e-01
6.879699248120301203e-01
6.892230576441102929e-01
6.917293233082706383e-01
8.020050125313282763e-02
3.872180451127819611e-01
8.020050125313282763e-02
3.884711779448621338e-01
6.992481203007518964e-01
7.030075187969925254e-01
7.080200501253133272e-01
3.922305764411027629e-01
7.393483709273182547e-02
7.017543859649122417e-02
3.822055137844611594e-01
6.766917293233082331e-01
4.010025062656641381e-02
2.255639097744360777e-02
6.315789473684210176e-01
6.165413533834586124e-01
5.827067669172932840e-01
5.551378446115288190e-01
1.303258145363408449e-01
1.428571428571428492e-01
2.030075187969924699e-01
1.867167919799498643e-01
1.265664160401002436e-01
9.774436090225563367e-02
8.020050125313282763e-02
6.967418546365914400e-01
6.929824561403509220e-01
6.929824561403509220e-01
3.822055137844611594e-01
7.017543859649122417e-02
3.809523809523809312e-01
6.766917293233082331e-02
6.766917293233082331e-02
3.796992481203007586e-01
6.917293233082706383e-01
6.892230576441102929e-01
6.892230576441102929e-01
3.746867167919799568e-01
3.746867167919799568e-01
3.746867167919799568e-01
3.746867167919799568e-01
6.265664160401002158e-02
3.734335839598997286e-01
6.842105263157894912e-01
3.721804511278195560e-01
3.721804511278195560e-01
3.721804511278195560e-01
6.867167919799498366e-01
3.734335839598997286e-01
6.879699248120301203e-01
6.892230576441102929e-01
5.513784461152881899e-02
3.696741854636591551e-01
6.817042606516290348e-01
3.659147869674185261e-01
3.646616541353383534e-01
3.634085213032581252e-01
6.791979949874686895e-01
6.766917293233082331e-01
3.583959899749373235e-01
4.010025062656641381e-02
3.759398496240601295e-02
3.508771929824561209e-02
3.132832080200501079e-02
3.483709273182957200e-01
6.654135338345864570e-01
6.641604010025062843e-01
2.130325814536340734e-02
6.591478696741854826e-01
6.578947368421053099e-01
6.541353383458646809e-01
6.503759398496240518e-01
6.466165413533834228e-01
6.466165413533834228e-01
3.333333333333333148e-01
6.453634085213032501e-01
6.403508771929824483e-01
6.378446115288221030e-01
6.403508771929824483e-01
3.370927318295739439e-01
3.395989974937343447e-01
4.260651629072681468e-02
3.521303258145363491e-01
3.558897243107769226e-01
5.388471177944861856e-02
5.889724310776942029e-02
6.140350877192982115e-02
6.641604010025062288e-02
3.684210526315789269e-01
7.268170426065162504e-02
7.393483709273182547e-02
3.721804511278195560e-01
7.518796992481202590e-02
7.518796992481202590e-02
7.518796992481202590e-02
7.769423558897242676e-02
3.734335839598997286e-01
3.746867167919799568e-01
6.716791979949874314e-01
7.769423558897242676e-02
3.759398496240601295e-01
6.691729323308270860e-01
6.679197994987469134e-01
6.654135338345864570e-01
3.696741854636591551e-01
3.696741854636591551e-01
3.696741854636591551e-01
7.894736842105262720e-02
8.020050125313282763e-02
6.616541353383458279e-01
3.696741854636591551e-01
3.696741854636591551e-01
6.616541353383458279e-01
6.616541353383458279e-01
7.393483709273182547e-02
3.709273182957393278e-01
6.666666666666666297e-01
3.709273182957393278e-01
7.268170426065162504e-02
7.518796992481202590e-02
6.666666666666666297e-01
6.629072681704261116e-01
6.616541353383458279e-01
7.769423558897242676e-02
6.616541353383458279e-01
3.709273182957393278e-01
3.721804511278195560e-01
8.020050125313282763e-02
3.734335839598997286e-01
3.734335839598997286e-01
8.020050125313282763e-02
8.020050125313282763e-02
6.691729323308270860e-01
6.691729323308270860e-01
3.759398496240601295e-01
3.759398496240601295e-01
3.759398496240601295e-01
3.771929824561403577e-01
3.771929824561403577e-01
6.716791979949874314e-01
6.716791979949874314e-01
8.270676691729322849e-02
3.784461152882205304e-01
3.784461152882205304e-01
3.784461152882205304e-01
6.704260651629072587e-01
3.759398496240601295e-01
3.771929824561403577e-01
6.716791979949874314e-01
3.784461152882205304e-01
6.741854636591478878e-01
6.741854636591478878e-01
3.796992481203007586e-01
3.796992481203007586e-01
6.754385964912280604e-01
6.704260651629072587e-01
3.771929824561403577e-01
3.771929824561403577e-01
8.521303258145362935e-02
3.771929824561403577e-01
8.270676691729322849e-02
8.270676691729322849e-02
3.771929824561403577e-01
3.771929824561403577e-01
3.771929824561403577e-01
3.771929824561403577e-01
6.716791979949874314e-01
3.759398496240601295e-01
6.691729323308270860e-01
6.691729323308270860e-01
5.764411027568921986e-02
5.764411027568921986e-02
5.889724310776942029e-02
5.764411027568921986e-02
6.140350877192982115e-02
6.516290726817042245e-02
1.441102756892230496e-01
1.491228070175438514e-01
1.591478696741854548e-01
1.641604010025062566e-01
1.679197994987468578e-01
1.766917293233082609e-01
1.842105263157894635e-01
1.854636591478696639e-01
1.867167919799498643e-01
1.854636591478696639e-01
1.817042606516290626e-01
1.754385964912280604e-01
1.666666666666666574e-01
1.578947368421052544e-01
1.541353383458646531e-01
1.491228070175438514e-01
1.478696741854636509e-01
6.917293233082706383e-01
6.842105263157894912e-01
6.679197994987469134e-01
1.604010025062656553e-01
1.578947368421052544e-01
1.704260651629072587e-01
5.588972431077694480e-01
5.639097744360902498e-01
5.551378446115288190e-01
1.578947368421052544e-01
6.390977443609022202e-02
1.892230576441102652e-01
4.260651629072681468e-01
1.604010025062656553e-01
1.604010025062656553e-01
1.716791979949874591e-01
1.741854636591478600e-01
1.741854636591478600e-01
3.796992481203007586e-01
7.017543859649122417e-02
7.017543859649122417e-02
6.917293233082706383e-01
6.892230576441102929e-01
6.879699248120301203e-01
6.917293233082706383e-01
6.942355889724310947e-01
6.929824561403509220e-01
6.917293233082706383e-01
3.796992481203007586e-01
3.796992481203007586e-01
6.904761904761904656e-01
6.879699248120301203e-01
6.854636591478696639e-01
6.842105263157894912e-01
6.842105263157894912e-01
6.842105263157894912e-01
3.734335839598997286e-01
6.265664160401002158e-02
6.265664160401002158e-02
3.734335839598997286e-01
5.889724310776942029e-02
6.842105263157894912e-01
3.721804511278195560e-01
6.817042606516290348e-01
3.709273182957393278e-01
6.804511278195488622e-01
6.779448621553885168e-01
6.791979949874686895e-01
6.867167919799498366e-01
6.892230576441102929e-01
3.721804511278195560e-01
3.721804511278195560e-01
6.892230576441102929e-01
6.854636591478696639e-01
3.684210526315789269e-01
5.012531328320801727e-02
4.761904761904761640e-02
3.634085213032581252e-01
3.621553884711779525e-01
3.609022556390977243e-01
3.609022556390977243e-01
6.791979949874686895e-01
4.010025062656641381e-02
3.759398496240601295e-02
6.766917293233082331e-01
6.754385964912280604e-01
3.558897243107769226e-01
3.558897243107769226e-01
3.571428571428571508e-01
3.583959899749373235e-01
6.766917293233082331e-01
6.791979949874686895e-01
6.842105263157894912e-01
6.904761904761904656e-01
6.954887218045112673e-01
7.017543859649122417e-01
7.080200501253133272e-01
3.809523809523809312e-01
3.822055137844611594e-01
5.513784461152881899e-02
7.130325814536341289e-01
7.155388471177944743e-01
3.872180451127819611e-01
3.872180451127819611e-01
7.192982456140351033e-01
7.218045112781954487e-01
5.764411027568921986e-02
3.884711779448621338e-01
7.192982456140351033e-01
7.167919799498746469e-01
7.167919799498746469e-01
7.167919799498746469e-01
7.167919799498746469e-01
7.167919799498746469e-01
7.167919799498746469e-01
7.167919799498746469e-01
7.167919799498746469e-01
7.167919799498746469e-01
7.167919799498746469e-01
7.167919799498746469e-01
7.167919799498746469e-01
5.764411027568921986e-02
3.859649122807017330e-01
3.859649122807017330e-01
3.859649122807017330e-01
3.859649122807017330e-01
3.859649122807017330e-01
7.142857142857143016e-01
7.142857142857143016e-01
7.142857142857143016e-01
7.142857142857143016e-01
7.142857142857143016e-01
7.142857142857143016e-01
3.859649122807017330e-01
3.859649122807017330e-01
5.764411027568921986e-02
3.859649122807017330e-01
3.859649122807017330e-01
3.859649122807017330e-01
7.142857142857143016e-01
7.142857142857143016e-01
3.872180451127819611e-01
3.859649122807017330e-01
7.167919799498746469e-01
7.167919799498746469e-01
7.192982456140351033e-01
7.192982456140351033e-01
7.192982456140351033e-01
7.192982456140351033e-01
7.192982456140351033e-01
3.884711779448621338e-01
3.884711779448621338e-01
7.167919799498746469e-01
3.884711779448621338e-01
3.884711779448621338e-01
6.015037593984962072e-02
7.142857142857143016e-01
7.105263157894736725e-01
7.042606516290726981e-01
6.992481203007518964e-01
3.822055137844611594e-01
3.847117794486215603e-01
3.859649122807017330e-01
3.859649122807017330e-01
7.067669172932330435e-01
3.859649122807017330e-01
3.859649122807017330e-01
7.042606516290726981e-01
7.017543859649122417e-01
3.847117794486215603e-01
6.967418546365914400e-01
3.822055137844611594e-01
6.766917293233082331e-02
6.766917293233082331e-02
6.929824561403509220e-01
6.917293233082706383e-01
6.854636591478696639e-01
6.842105263157894912e-01
6.804511278195488622e-01
6.766917293233082331e-01
6.766917293233082331e-02
6.766917293233082331e-02
6.516290726817042245e-02
6.265664160401002158e-02
5.889724310776942029e-02
5.764411027568921986e-02
3.684210526315789269e-01
3.684210526315789269e-01
6.779448621553885168e-01
6.842105263157894912e-01
6.867167919799498366e-01
6.867167919799498366e-01
6.867167919799498366e-01
3.809523809523809312e-01
3.834586466165413321e-01
7.017543859649122417e-02
3.847117794486215603e-01
3.847117794486215603e-01
6.942355889724310947e-01
6.929824561403509220e-01
6.892230576441102929e-01
6.892230576441102929e-01
6.892230576441102929e-01
3.809523809523809312e-01
7.268170426065162504e-02
6.892230576441102374e-02
6.516290726817042245e-02
5.012531328320801727e-02
6.228070175438596978e-01
5.989974937343358619e-01
5.764411027568921986e-01
5.714285714285713969e-01
5.588972431077694480e-01
5.012531328320801727e-02
6.290726817042606722e-01
3.646616541353383534e-01
6.729323308270677151e-01
3.771929824561403577e-01
6.842105263157894912e-01
6.842105263157894912e-01
6.766917293233082331e-02
6.766917293233082331e-02
3.759398496240601295e-01
3.759398496240601295e-01
3.759398496240601295e-01
3.759398496240601295e-01
3.759398496240601295e-01
3.759398496240601295e-01
6.817042606516290348e-01
6.804511278195488622e-01
6.791979949874686895e-01
6.791979949874686895e-01
3.734335839598997286e-01
3.734335839598997286e-01
6.766917293233082331e-02
6.817042606516290348e-01
6.817042606516290348e-01
3.746867167919799568e-01
3.746867167919799568e-01
3.746867167919799568e-01
6.791979949874686895e-01
6.779448621553885168e-01
3.709273182957393278e-01
3.721804511278195560e-01
6.791979949874686895e-01
6.265664160401002158e-02
3.721804511278195560e-01
3.721804511278195560e-01
6.015037593984962072e-02
6.842105263157894912e-01
3.709273182957393278e-01
6.817042606516290348e-01
6.817042606516290348e-01
6.766917293233082331e-01
6.729323308270677151e-01
6.691729323308270860e-01
6.666666666666666297e-01
6.641604010025062843e-01
6.629072681704261116e-01
6.616541353383458279e-01
5.263157894736841813e-02
3.558897243107769226e-01
6.541353383458646809e-01
6.478696741854637065e-01
6.390977443609022757e-01
6.340852130325814739e-01
6.365914786967418193e-01
4.761904761904761640e-02
4.761904761904761640e-02
3.421052631578947456e-01
4.511278195488721554e-02
4.761904761904761640e-02
3.446115288220551465e-01
3.458646616541353191e-01
5.263157894736841813e-02
5.513784461152881899e-02
6.466165413533834228e-01
6.478696741854637065e-01
6.541353383458646809e-01
6.566416040100250262e-01
6.591478696741854826e-01
6.616541353383458279e-01
6.654135338345864570e-01
6.691729323308270860e-01
6.766917293233082331e-02
7.017543859649122417e-02
6.716791979949874314e-01
3.721804511278195560e-01
6.741854636591478878e-01
6.741854636591478878e-01
6.741854636591478878e-01
6.741854636591478878e-01
3.734335839598997286e-01
7.268170426065162504e-02
7.268170426065162504e-02
7.268170426065162504e-02
6.892230576441102374e-02
3.709273182957393278e-01
3.709273182957393278e-01
7.017543859649122417e-02
3.709273182957393278e-01
6.741854636591478878e-01
6.766917293233082331e-02
3.721804511278195560e-01
3.721804511278195560e-01
3.721804511278195560e-01
3.734335839598997286e-01
7.017543859649122417e-02
7.017543859649122417e-02
3.759398496240601295e-01
6.817042606516290348e-01
6.817042606516290348e-01
3.746867167919799568e-01
6.766917293233082331e-02
6.766917293233082331e-02
6.766917293233082331e-02
3.746867167919799568e-01
6.842105263157894912e-01
6.842105263157894912e-01
3.771929824561403577e-01
3.771929824561403577e-01
6.766917293233082331e-02
3.784461152882205304e-01
6.766917293233082331e-02
3.796992481203007586e-01
3.809523809523809312e-01
6.879699248120301203e-01
6.854636591478696639e-01
6.829573934837093185e-01
6.879699248120301203e-01
6.929824561403509220e-01
6.967418546365914400e-01
3.822055137844611594e-01
6.516290726817042245e-02
6.516290726817042245e-02
2.230576441102756768e-01
3.809523809523809312e-01
3.809523809523809312e-01
6.265664160401002158e-02
6.390977443609022202e-02
3.809523809523809312e-01
6.954887218045112673e-01
6.942355889724310947e-01
6.942355889724310947e-01
3.796992481203007586e-01
3.796992481203007586e-01
6.516290726817042245e-02
6.516290726817042245e-02
3.796992481203007586e-01
6.967418546365914400e-01
6.967418546365914400e-01
3.809523809523809312e-01
6.992481203007518964e-01
3.822055137844611594e-01
7.017543859649122417e-01
7.067669172932330435e-01
7.080200501253133272e-01
7.080200501253133272e-01
6.992481203007518964e-01
6.979949874686717237e-01
7.017543859649122417e-01
7.055137844611528708e-01
6.140350877192982115e-02
6.015037593984962072e-02
5.639097744360901943e-02
3.796992481203007586e-01
3.771929824561403577e-01
6.979949874686717237e-01
6.929824561403509220e-01
6.917293233082706383e-01
6.954887218045112673e-01
7.030075187969925254e-01
7.055137844611528708e-01
7.092731829573934998e-01
3.834586466165413321e-01
5.388471177944861856e-02
3.859649122807017330e-01
7.155388471177944743e-01
7.205513784461152760e-01
7.255639097744360777e-01
7.255639097744360777e-01
7.218045112781954487e-01
7.192982456140351033e-01
7.205513784461152760e-01
7.243107769423559050e-01
7.243107769423559050e-01
3.934837092731829356e-01
7.243107769423559050e-01
3.934837092731829356e-01
6.265664160401002158e-02
7.042606516290726981e-01
6.867167919799498366e-01
4.010025062656641381e-02
2.380952380952380820e-02
6.253132832080200432e-01
6.152882205513784397e-01
6.165413533834586124e-01
6.102756892230576380e-01
4.636591478696741597e-02
6.829573934837093185e-01
