5.036855036855036882e-01
5.036855036855036882e-01
5.061265515810969839e-01
5.085675994766903907e-01
5.110086473722837974e-01
5.134496952678770931e-01
5.158907431634703888e-01
5.183317910590637956e-01
5.207728389546572023e-01
5.232138868502504980e-01
5.256549347458437937e-01
5.280959826414372005e-01
5.305370305370304962e-01
5.329780784326239029e-01
5.354191263282171986e-01
5.378601742238106054e-01
5.403012221194039011e-01
5.427422700149973078e-01
5.451833179105906035e-01
5.476243658061840103e-01
5.500654137017773060e-01
5.525064615973707127e-01
5.549475094929640084e-01
5.573885573885574152e-01
5.598296052841507109e-01
5.622706531797441176e-01
5.647117010753375244e-01
5.671527489709308201e-01
5.695937968665241158e-01
5.720348447621175225e-01
5.744758926577109293e-01
5.769169405533042250e-01
5.793579884488975207e-01
5.817990363444909274e-01
5.842400842400842231e-01
5.866811321356776299e-01
5.891221800312709256e-01
5.915632279268643323e-01
5.940042758224576280e-01
5.964453237180509237e-01
5.988863716136443305e-01
6.013274195092377372e-01
6.037684674048310329e-01
6.062095153004243286e-01
6.086505631960177354e-01
6.110916110916111421e-01
6.135326589872044378e-01
6.159737068827977335e-01
6.184147547783911403e-01
6.208558026739845470e-01
6.232968505695778427e-01
6.257378984651712495e-01
6.281789463607645452e-01
6.306199942563579519e-01
6.330610421519512476e-01
6.355020900475445433e-01
6.379431379431379501e-01
6.403841858387312458e-01
6.428252337343246525e-01
6.452662816299180593e-01
6.477073295255113550e-01
6.501483774211047617e-01
6.525894253166980574e-01
6.550304732122914642e-01
6.574715211078848709e-01
6.599125690034780556e-01
6.623536168990714623e-01
6.647946647946647580e-01
6.672357126902581648e-01
6.696767605858515715e-01
6.721178084814448672e-01
6.745588563770382740e-01
6.769999042726314586e-01
6.794409521682248654e-01
6.818820000638182721e-01
6.843230479594115678e-01
6.867640958550049746e-01
6.892051437505982703e-01
6.916461916461916770e-01
5.724815724815724982e-01
5.724815724815724982e-01
5.712530712530712318e-01
5.147420147420147529e-01
5.147420147420147529e-01
5.147420147420147529e-01
5.147420147420147529e-01
5.147420147420147529e-01
5.147420147420147529e-01
5.147420147420147529e-01
5.147420147420147529e-01
5.147420147420147529e-01
5.147420147420147529e-01
5.147420147420147529e-01
5.147420147420147529e-01
5.147420147420147529e-01
5.147420147420147529e-01
5.147420147420147529e-01
5.147420147420147529e-01
5.147420147420147529e-01
5.147420147420147529e-01
5.147420147420147529e-01
5.147420147420147529e-01
5.147420147420147529e-01
5.147420147420147529e-01
5.147420147420147529e-01
5.147420147420147529e-01
5.147420147420147529e-01
5.147420147420147529e-01
5.147420147420147529e-01
5.147420147420147529e-01
5.147420147420147529e-01
5.147420147420147529e-01
5.147420147420147529e-01
5.147420147420147529e-01
5.147420147420147529e-01
5.147420147420147529e-01
5.147420147420147529e-01
5.147420147420147529e-01
5.712530712530712318e-01
5.724815724815724982e-01
5.737100737100737646e-01
6.916461916461916770e-01
4.619164619164619068e-01
4.606879606879606959e-01
7.211302211302211829e-01
7.248157248157248711e-01
7.272727272727272929e-01
8.230958230958231037e-02
8.353808353808353515e-02
8.599508599508599860e-02
7.862407862407862214e-02
4.643734643734643841e-01
4.631449631449631177e-01
4.631449631449631177e-01
7.862407862407862214e-02
8.108108108108108558e-02
3.980343980343980514e-01
3.955773955773955741e-01
3.943488943488943632e-01
7.125307125307125955e-02
1.756756756756756854e-01
1.744471744471744468e-01
1.781326781326781350e-01
7.100737100737101182e-01
7.076167076167075853e-01
7.014742014742014753e-01
6.977886977886977871e-01
3.845208845208845094e-01
6.928746928746928324e-01
7.493857493857493390e-02
3.832923832923832985e-01
6.855036855036854559e-01
3.796068796068796103e-01
6.805896805896806123e-01
6.769041769041769241e-01
3.746928746928747112e-01
6.719901719901719694e-01
6.707616707616708140e-01
6.695331695331695476e-01
7.125307125307125955e-02
7.125307125307125955e-02
6.879606879606879610e-02
3.624078624078624355e-01
6.584766584766584829e-01
6.560196560196560611e-01
3.599508599508599582e-01
6.584766584766584829e-01
3.611793611793611691e-01
6.142506142506142658e-02
5.773955773955773835e-02
3.599508599508599582e-01
3.624078624078624355e-01
6.719901719901719694e-01
6.756756756756756577e-01
6.805896805896806123e-01
6.842751842751843006e-01
6.891891891891891442e-01
6.941031941031940988e-01
6.953316953316953652e-01
3.808353808353808212e-01
3.820638820638820876e-01
3.832923832923832985e-01
3.845208845208845094e-01
3.845208845208845094e-01
7.063882063882064299e-01
7.113022113022112736e-01
7.125307125307125400e-01
7.100737100737101182e-01
3.857493857493857758e-01
3.857493857493857758e-01
3.857493857493857758e-01
7.076167076167075853e-01
3.894348894348894086e-01
7.002457002457002089e-02
6.633906633906633266e-02
6.142506142506142658e-02
5.896805896805897007e-02
7.076167076167075853e-01
3.845208845208845094e-01
7.027027027027027417e-01
7.002457002457002089e-01
6.142506142506142658e-02
6.142506142506142658e-02
3.796068796068796103e-01
3.796068796068796103e-01
3.796068796068796103e-01
3.796068796068796103e-01
6.977886977886977871e-01
6.965601965601965206e-01
6.965601965601965206e-01
7.014742014742014753e-01
7.051597051597051635e-01
7.076167076167075853e-01
7.100737100737101182e-01
3.869778869778869868e-01
3.869778869778869868e-01
3.869778869778869868e-01
3.857493857493857758e-01
7.076167076167075853e-01
7.076167076167075853e-01
7.051597051597051635e-01
7.051597051597051635e-01
7.027027027027027417e-01
7.002457002457002089e-01
3.796068796068796103e-01
3.796068796068796103e-01
7.002457002457002089e-01
6.142506142506142658e-02
3.820638820638820876e-01
6.142506142506142658e-02
7.051597051597051635e-01
7.014742014742014753e-01
7.002457002457002089e-01
3.820638820638820876e-01
3.832923832923832985e-01
7.125307125307125955e-02
7.002457002457002089e-02
6.265356265356265830e-02
6.265356265356265830e-02
6.142506142506142658e-02
6.142506142506142658e-02
3.796068796068796103e-01
3.796068796068796103e-01
3.808353808353808212e-01
3.808353808353808212e-01
3.808353808353808212e-01
6.977886977886977871e-01
6.977886977886977871e-01
3.820638820638820876e-01
6.633906633906633266e-02
6.633906633906633266e-02
3.832923832923832985e-01
6.953316953316953652e-01
3.808353808353808212e-01
6.142506142506142658e-02
3.783783783783783994e-01
3.796068796068796103e-01
6.953316953316953652e-01
3.808353808353808212e-01
6.633906633906633266e-02
7.002457002457002089e-02
7.371007371007370912e-02
7.616707616707617257e-02
7.739557739557739735e-02
7.739557739557739735e-02
7.371007371007370912e-02
7.616707616707617257e-02
8.108108108108108558e-02
3.931203931203930968e-01
3.943488943488943632e-01
7.113022113022112736e-01
7.125307125307125400e-01
7.186732186732186500e-01
7.235872235872236047e-01
4.029484029484029506e-01
7.272727272727272929e-01
7.493857493857493390e-02
7.125307125307125955e-02
7.002457002457002089e-02
3.980343980343980514e-01
3.980343980343980514e-01
3.992628992628992624e-01
7.125307125307125955e-02
7.211302211302211829e-01
6.990171990171990535e-01
6.830466830466830341e-01
6.621621621621621712e-01
6.437346437346437300e-01
3.316953316953316633e-02
2.457002457002456855e-02
6.326781326781326653e-01
6.621621621621621712e-01
6.683046683046682812e-01
3.648648648648648574e-01
5.896805896805897007e-02
6.388206388206388309e-02
7.321867321867321365e-01
7.272727272727272929e-01
3.992628992628992624e-01
3.992628992628992624e-01
4.004914004914004733e-01
4.004914004914004733e-01
7.616707616707617257e-02
4.017199017199017397e-01
4.029484029484029506e-01
7.616707616707617257e-02
7.739557739557739735e-02
7.862407862407862214e-02
7.862407862407862214e-02
4.041769041769041615e-01
7.248157248157248711e-01
8.108108108108108558e-02
8.108108108108108558e-02
4.017199017199017397e-01
4.017199017199017397e-01
4.017199017199017397e-01
2.414004914004914126e-01
8.108108108108108558e-02
8.108108108108108558e-02
8.353808353808353515e-02
8.599508599508599860e-02
4.004914004914004733e-01
7.125307125307125400e-01
7.125307125307125400e-01
3.968058968058967850e-01
8.230958230958231037e-02
8.353808353808353515e-02
7.862407862407862214e-02
7.616707616707617257e-02
7.739557739557739735e-02
7.862407862407862214e-02
6.977886977886977871e-01
6.965601965601965206e-01
6.916461916461916770e-01
6.879606879606879888e-01
3.808353808353808212e-01
7.371007371007370912e-02
6.830466830466830341e-01
6.781326781326780795e-01
6.732186732186732359e-01
6.732186732186732359e-01
3.697788697788697565e-01
6.388206388206388309e-02
6.633906633906633266e-02
6.805896805896806123e-01
6.830466830466830341e-01
6.830466830466830341e-01
6.867321867321867224e-01
6.928746928746928324e-01
6.990171990171990535e-01
7.014742014742014753e-01
7.063882063882064299e-01
7.100737100737101182e-01
3.882063882063881977e-01
6.388206388206388309e-02
7.174447174447174946e-01
7.174447174447174946e-01
7.223587223587223383e-01
7.223587223587223383e-01
3.943488943488943632e-01
3.943488943488943632e-01
3.943488943488943632e-01
3.943488943488943632e-01
3.955773955773955741e-01
7.248157248157248711e-01
3.992628992628992624e-01
7.272727272727272929e-01
7.272727272727272929e-01
7.272727272727272929e-01
3.992628992628992624e-01
6.879606879606879610e-02
6.879606879606879610e-02
7.272727272727272929e-01
7.223587223587223383e-01
7.186732186732186500e-01
3.943488943488943632e-01
3.943488943488943632e-01
3.943488943488943632e-01
3.943488943488943632e-01
3.943488943488943632e-01
7.248157248157248433e-02
7.002457002457002089e-02
6.756756756756757132e-02
6.633906633906633266e-02
7.002457002457002089e-02
7.248157248157248433e-02
7.125307125307125955e-02
6.879606879606879610e-02
3.894348894348894086e-01
3.894348894348894086e-01
3.894348894348894086e-01
7.100737100737101182e-01
3.906633906633906750e-01
3.906633906633906750e-01
3.906633906633906750e-01
3.906633906633906750e-01
3.918918918918918859e-01
7.125307125307125400e-01
7.137592137592138064e-01
7.137592137592138064e-01
9.656019656019656505e-01
9.668304668304668059e-01
9.668304668304668059e-01
7.174447174447174946e-01
9.656019656019656505e-01
9.680589680589680723e-01
9.656019656019656505e-01
9.692874692874693388e-01
9.717444717444717606e-01
9.729729729729730270e-01
9.729729729729730270e-01
7.125307125307125400e-01
3.943488943488943632e-01
7.125307125307125400e-01
8.108108108108108558e-02
7.985257985257984692e-02
9.656019656019656505e-01
9.717444717444717606e-01
9.717444717444717606e-01
9.668304668304668059e-01
9.656019656019656505e-01
8.402948402948402506e-01
8.402948402948402506e-01
9.668304668304668059e-01
9.668304668304668059e-01
7.174447174447174946e-01
7.199017199017199165e-01
9.877149877149876689e-01
9.901719901719902017e-01
9.926289926289926235e-01
7.371007371007370912e-02
7.125307125307125955e-02
3.906633906633906750e-01
7.137592137592138064e-01
7.174447174447174946e-01
9.877149877149876689e-01
9.889434889434889353e-01
9.877149877149876689e-01
7.186732186732186500e-01
7.186732186732186500e-01
7.174447174447174946e-01
7.174447174447174946e-01
7.186732186732186500e-01
7.186732186732186500e-01
7.174447174447174946e-01
7.211302211302211829e-01
9.901719901719902017e-01
9.889434889434889353e-01
9.901719901719902017e-01
7.248157248157248711e-01
7.248157248157248711e-01
7.260442260442260265e-01
7.334152334152334030e-01
7.321867321867321365e-01
7.371007371007370912e-01
7.346437346437346694e-01
7.321867321867321365e-01
9.889434889434889353e-01
9.914004914004913571e-01
9.938574938574938900e-01
7.371007371007370912e-02
7.248157248157248711e-01
7.285012285012284483e-01
4.078624078624078497e-01
7.162162162162162282e-01
7.162162162162162282e-01
6.916461916461916770e-01
6.732186732186732359e-01
6.289926289926289771e-01
3.439803439803439805e-02
2.702702702702702853e-02
6.461916461916461518e-01
6.633906633906634376e-01
3.562653562653562700e-01
6.842751842751843006e-01
7.186732186732186500e-01
9.864864864864865135e-01
9.901719901719902017e-01
9.914004914004913571e-01
4.004914004914004733e-01
7.285012285012284483e-01
4.041769041769041615e-01
4.054054054054054279e-01
4.054054054054054279e-01
7.260442260442260265e-01
7.260442260442260265e-01
9.791154791154791370e-01
9.901719901719902017e-01
9.889434889434889353e-01
9.926289926289926235e-01
4.017199017199017397e-01
7.248157248157248711e-01
4.041769041769041615e-01
8.108108108108108558e-02
7.260442260442260265e-01
9.987714987714987336e-01
9.950859950859950454e-01
9.877149877149876689e-01
9.803439803439802924e-01
9.692874692874693388e-01
9.656019656019656505e-01
7.248157248157248711e-01
8.353808353808353515e-02
8.476658476658475994e-02
8.538083538083538482e-01
9.815724815724815588e-01
9.815724815724815588e-01
8.501228501228501599e-01
8.488943488943488935e-01
9.778869778869778706e-01
7.125307125307125400e-01
9.791154791154791370e-01
8.427518427518427835e-01
7.014742014742014753e-01
7.027027027027027417e-01
6.941031941031940988e-01
6.879606879606879888e-01
7.125307125307125955e-02
7.493857493857493390e-02
3.746928746928747112e-01
3.734643734643734447e-01
6.707616707616708140e-01
6.732186732186732359e-01
6.633906633906633266e-02
3.710073710073710229e-01
3.722358722358722338e-01
6.793611793611793459e-01
6.855036855036854559e-01
6.916461916461916770e-01
6.965601965601965206e-01
6.990171990171990535e-01
7.039312039312038971e-01
7.063882063882064299e-01
7.100737100737101182e-01
3.918918918918918859e-01
7.149877149877149618e-01
7.174447174447174946e-01
7.199017199017199165e-01
6.879606879606879610e-02
3.943488943488943632e-01
7.199017199017199165e-01
8.108108108108108558e-02
8.353808353808353515e-02
7.616707616707617257e-02
7.248157248157248433e-02
7.616707616707617257e-02
7.985257985257984692e-02
7.739557739557739735e-02
7.371007371007370912e-02
7.125307125307125955e-02
6.879606879606879610e-02
6.633906633906633266e-02
6.633906633906633266e-02
7.002457002457002089e-02
7.493857493857493390e-02
7.616707616707617257e-02
7.616707616707617257e-02
7.223587223587223383e-01
3.980343980343980514e-01
7.616707616707617257e-02
7.616707616707617257e-02
3.992628992628992624e-01
3.980343980343980514e-01
7.248157248157248433e-02
7.248157248157248433e-02
3.968058968058967850e-01
7.199017199017199165e-01
7.211302211302211829e-01
7.125307125307125955e-02
7.125307125307125955e-02
7.493857493857493390e-02
7.739557739557739735e-02
4.029484029484029506e-01
4.029484029484029506e-01
7.272727272727272929e-01
7.272727272727272929e-01
7.862407862407862214e-02
4.029484029484029506e-01
4.029484029484029506e-01
4.017199017199017397e-01
4.017199017199017397e-01
7.616707616707617257e-02
7.616707616707617257e-02
7.616707616707617257e-02
3.992628992628992624e-01
3.992628992628992624e-01
3.992628992628992624e-01
3.992628992628992624e-01
3.992628992628992624e-01
7.616707616707617257e-02
7.862407862407862214e-02
7.862407862407862214e-02
7.235872235872236047e-01
7.199017199017199165e-01
7.199017199017199165e-01
7.616707616707617257e-02
7.616707616707617257e-02
3.968058968058967850e-01
3.968058968058967850e-01
7.199017199017199165e-01
3.980343980343980514e-01
7.371007371007370912e-02
7.616707616707617257e-02
7.739557739557739735e-02
4.004914004914004733e-01
7.616707616707617257e-02
7.616707616707617257e-02
3.992628992628992624e-01
7.248157248157248433e-02
7.248157248157248433e-02
7.248157248157248433e-02
7.248157248157248433e-02
7.248157248157248433e-02
7.248157248157248433e-02
1.928746928746928879e-01
1.879606879606879610e-01
1.879606879606879610e-01
1.818181818181818232e-01
1.818181818181818232e-01
1.830466830466830341e-01
1.830466830466830341e-01
1.904176904176904106e-01
1.990171990171990257e-01
1.818181818181818232e-01
1.818181818181818232e-01
1.855036855036855115e-01
1.855036855036855115e-01
1.891891891891891997e-01
3.943488943488943632e-01
3.955773955773955741e-01
1.535626535626535560e-01
1.547911547911547947e-01
1.621621621621621712e-01
1.633906633906633821e-01
1.695331695331695199e-01
1.756756756756756854e-01
1.830466830466830341e-01
1.891891891891891997e-01
1.965601965601965484e-01
2.002457002457002366e-01
1.990171990171990257e-01
1.953316953316953375e-01
1.916461916461916493e-01
1.867321867321867224e-01
1.769041769041768963e-01
1.719901719901719972e-01
1.646191646191646207e-01
1.609336609336609325e-01
1.572481572481572443e-01
1.547911547911547947e-01
4.066339066339066388e-01
7.248157248157248711e-01
6.953316953316953652e-01
6.646191646191645930e-01
1.891891891891891997e-01
1.904176904176904106e-01
1.805896805896805846e-01
1.474201474201474252e-02
1.744471744471744468e-01
6.289926289926289771e-01
6.339066339066339317e-01
1.646191646191646207e-01
1.756756756756756854e-01
1.646191646191646207e-01
1.572481572481572443e-01
1.572481572481572443e-01
1.523341523341523451e-01
4.004914004914004733e-01
4.004914004914004733e-01
4.004914004914004733e-01
3.992628992628992624e-01
3.980343980343980514e-01
3.980343980343980514e-01
8.108108108108108558e-02
3.992628992628992624e-01
7.149877149877149618e-01
3.980343980343980514e-01
3.980343980343980514e-01
3.980343980343980514e-01
8.108108108108108558e-02
3.968058968058967850e-01
7.125307125307125400e-01
7.125307125307125400e-01
7.125307125307125400e-01
7.862407862407862214e-02
7.862407862407862214e-02
3.943488943488943632e-01
7.100737100737101182e-01
3.918918918918918859e-01
3.918918918918918859e-01
3.906633906633906750e-01
7.051597051597051635e-01
3.894348894348894086e-01
3.882063882063881977e-01
7.027027027027027417e-01
7.002457002457002089e-01
6.990171990171990535e-01
6.928746928746928324e-01
6.904176904176904106e-01
3.771498771498771330e-01
3.746928746928747112e-01
6.805896805896806123e-01
6.756756756756756577e-01
6.744471744471745023e-01
3.624078624078624355e-01
6.658476658476658594e-01
6.658476658476658594e-01
6.633906633906634376e-01
3.574938574938574809e-01
6.633906633906634376e-01
6.609336609336609047e-01
4.668304668304668059e-02
3.525798525798525818e-01
3.538083538083537927e-01
6.633906633906634376e-01
6.683046683046682812e-01
6.719901719901719694e-01
6.781326781326780795e-01
6.855036855036854559e-01
6.904176904176904106e-01
6.928746928746928324e-01
3.796068796068796103e-01
3.796068796068796103e-01
3.796068796068796103e-01
6.388206388206388309e-02
3.808353808353808212e-01
6.633906633906633266e-02
7.125307125307125955e-02
3.857493857493857758e-01
3.869778869778869868e-01
7.027027027027027417e-01
7.051597051597051635e-01
7.076167076167075853e-01
7.088452088452088518e-01
7.125307125307125400e-01
7.125307125307125400e-01
7.125307125307125400e-01
7.125307125307125400e-01
3.943488943488943632e-01
3.943488943488943632e-01
3.943488943488943632e-01
3.968058968058967850e-01
7.149877149877149618e-01
3.968058968058967850e-01
7.739557739557739735e-02
7.149877149877149618e-01
3.968058968058967850e-01
3.980343980343980514e-01
7.199017199017199165e-01
5.601965601965601671e-01
4.004914004914004733e-01
7.862407862407862214e-02
7.862407862407862214e-02
7.862407862407862214e-02
4.017199017199017397e-01
4.017199017199017397e-01
4.004914004914004733e-01
7.985257985257984692e-02
8.108108108108108558e-02
8.353808353808353515e-02
8.353808353808353515e-02
4.029484029484029506e-01
4.029484029484029506e-01
8.108108108108108558e-02
7.862407862407862214e-02
4.004914004914004733e-01
4.004914004914004733e-01
7.862407862407862214e-02
7.862407862407862214e-02
7.862407862407862214e-02
7.862407862407862214e-02
4.017199017199017397e-01
4.017199017199017397e-01
7.248157248157248711e-01
4.054054054054054279e-01
8.108108108108108558e-02
7.616707616707617257e-02
3.992628992628992624e-01
3.992628992628992624e-01
3.992628992628992624e-01
7.199017199017199165e-01
7.199017199017199165e-01
7.174447174447174946e-01
7.149877149877149618e-01
7.137592137592138064e-01
7.371007371007370912e-02
3.918918918918918859e-01
3.918918918918918859e-01
3.918918918918918859e-01
7.125307125307125400e-01
7.125307125307125400e-01
7.125307125307125400e-01
7.186732186732186500e-01
7.174447174447174946e-01
7.162162162162162282e-01
7.149877149877149618e-01
7.149877149877149618e-01
7.149877149877149618e-01
9.840294840294839807e-01
9.828009828009828253e-01
9.815724815724815588e-01
7.616707616707617257e-02
7.862407862407862214e-02
3.955773955773955741e-01
7.100737100737101182e-01
7.076167076167075853e-01
7.051597051597051635e-01
3.869778869778869868e-01
3.869778869778869868e-01
9.852579852579852471e-01
9.828009828009828253e-01
9.852579852579852471e-01
9.828009828009828253e-01
9.680589680589680723e-01
7.014742014742014753e-01
6.977886977886977871e-01
6.941031941031940988e-01
3.808353808353808212e-01
6.990171990171990535e-01
8.329238329238328742e-01
9.680589680589680723e-01
9.754299754299754488e-01
9.828009828009828253e-01
9.840294840294839807e-01
9.828009828009828253e-01
7.862407862407862214e-02
7.100737100737101182e-01
7.100737100737101182e-01
8.495085995085994712e-01
9.889434889434889353e-01
9.877149877149876689e-01
9.877149877149876689e-01
7.186732186732186500e-01
7.199017199017199165e-01
7.211302211302211829e-01
7.223587223587223383e-01
7.199017199017199165e-01
7.199017199017199165e-01
7.199017199017199165e-01
7.199017199017199165e-01
9.914004914004913571e-01
9.926289926289926235e-01
9.938574938574938900e-01
7.186732186732186500e-01
7.186732186732186500e-01
7.051597051597051635e-01
6.818181818181817677e-01
6.560196560196560611e-01
6.339066339066339317e-01
6.167076167076167570e-01
6.044226044226044259e-01
6.289926289926289771e-01
6.486486486486486847e-01
6.486486486486486847e-01
6.142506142506142658e-02
7.125307125307125955e-02
3.869778869778869868e-01
3.943488943488943632e-01
3.943488943488943632e-01
9.877149877149876689e-01
9.889434889434889353e-01
9.877149877149876689e-01
7.125307125307125400e-01
7.100737100737101182e-01
7.125307125307125400e-01
7.162162162162162282e-01
7.162162162162162282e-01
7.149877149877149618e-01
7.088452088452088518e-01
7.100737100737101182e-01
9.889434889434889353e-01
9.901719901719902017e-01
9.926289926289926235e-01
7.862407862407862214e-02
7.088452088452088518e-01
7.113022113022112736e-01
7.088452088452088518e-01
7.076167076167075853e-01
7.100737100737101182e-01
7.100737100737101182e-01
8.452088452088452053e-01
9.864864864864865135e-01
9.901719901719902017e-01
9.963144963144963118e-01
7.371007371007370912e-02
3.857493857493857758e-01
6.953316953316953652e-01
3.832923832923832985e-01
6.953316953316953652e-01
9.975429975429975782e-01
9.926289926289926235e-01
9.828009828009828253e-01
8.341523341523341406e-01
8.280098280098280306e-01
6.830466830466830341e-01
6.756756756756756577e-01
3.624078624078624355e-01
3.611793611793611691e-01
3.587223587223587473e-01
9.901719901719902017e-01
9.828009828009828253e-01
9.852579852579852471e-01
3.513513513513513709e-01
3.513513513513513709e-01
6.609336609336609047e-01
6.646191646191645930e-01
6.646191646191645930e-01
6.695331695331695476e-01
6.744471744471745023e-01
6.781326781326780795e-01
9.877149877149876689e-01
9.938574938574938900e-01
9.864864864864865135e-01
6.867321867321867224e-01
6.941031941031940988e-01
6.977886977886977871e-01
7.002457002457002089e-01
7.014742014742014753e-01
7.051597051597051635e-01
7.039312039312038971e-01
9.889434889434889353e-01
9.901719901719902017e-01
9.926289926289926235e-01
3.845208845208845094e-01
6.633906633906633266e-02
6.633906633906633266e-02
7.027027027027027417e-01
7.051597051597051635e-01
9.668304668304668059e-01
8.402948402948402506e-01
7.174447174447174946e-01
9.815724815724815588e-01
9.901719901719902017e-01
9.950859950859950454e-01
1.000000000000000000e+00
7.100737100737101182e-01
7.051597051597051635e-01
7.076167076167075853e-01
9.975429975429975782e-01
9.938574938574938900e-01
9.877149877149876689e-01
9.815724815724815588e-01
9.754299754299754488e-01
9.692874692874693388e-01
9.656019656019656505e-01
7.051597051597051635e-01
3.869778869778869868e-01
6.879606879606879610e-02
3.857493857493857758e-01
3.857493857493857758e-01
6.879606879606879610e-02
7.051597051597051635e-01
3.882063882063881977e-01
3.882063882063881977e-01
7.125307125307125955e-02
3.857493857493857758e-01
3.857493857493857758e-01
3.857493857493857758e-01
7.027027027027027417e-01
7.125307125307125955e-02
7.125307125307125955e-02
7.051597051597051635e-01
7.051597051597051635e-01
7.051597051597051635e-01
7.125307125307125955e-02
3.857493857493857758e-01
6.879606879606879610e-02
3.869778869778869868e-01
3.869778869778869868e-01
3.882063882063881977e-01
7.051597051597051635e-01
7.051597051597051635e-01
3.894348894348894086e-01
3.894348894348894086e-01
7.076167076167075853e-01
7.100737100737101182e-01
7.371007371007370912e-02
7.371007371007370912e-02
7.371007371007370912e-02
7.371007371007370912e-02
3.931203931203930968e-01
7.125307125307125400e-01
7.616707616707617257e-02
3.955773955773955741e-01
3.955773955773955741e-01
3.955773955773955741e-01
3.968058968058967850e-01
7.174447174447174946e-01
3.992628992628992624e-01
3.992628992628992624e-01
3.992628992628992624e-01
3.992628992628992624e-01
7.199017199017199165e-01
3.992628992628992624e-01
7.862407862407862214e-02
7.739557739557739735e-02
7.616707616707617257e-02
7.616707616707617257e-02
3.980343980343980514e-01
7.199017199017199165e-01
7.199017199017199165e-01
7.199017199017199165e-01
7.199017199017199165e-01
7.199017199017199165e-01
7.199017199017199165e-01
7.186732186732186500e-01
7.137592137592138064e-01
3.943488943488943632e-01
3.931203931203930968e-01
7.125307125307125400e-01
7.125307125307125400e-01
7.616707616707617257e-02
7.174447174447174946e-01
7.174447174447174946e-01
7.223587223587223383e-01
8.599508599508599860e-02
4.066339066339066388e-01
4.066339066339066388e-01
7.272727272727272929e-01
9.090909090909091161e-02
4.127764127764127489e-01
9.090909090909091161e-02
9.090909090909091161e-02
4.115479115479115380e-01
8.722358722358722338e-02
8.230958230958231037e-02
8.353808353808353515e-02
4.078624078624078497e-01
7.321867321867321365e-01
7.321867321867321365e-01
4.090909090909091161e-01
4.103194103194103270e-01
8.845208845208844817e-02
7.321867321867321365e-01
4.103194103194103270e-01
4.103194103194103270e-01
4.115479115479115380e-01
7.100737100737101182e-01
6.879606879606879888e-01
6.621621621621621712e-01
6.474201474201474182e-01
6.265356265356265553e-01
1.597051597051597077e-02
6.302211302211302435e-01
6.498771498771498401e-01
6.535626535626535283e-01
7.125307125307125955e-02
7.616707616707617257e-02
7.985257985257984692e-02
7.321867321867321365e-01
7.321867321867321365e-01
7.272727272727272929e-01
7.248157248157248711e-01
8.230958230958231037e-02
8.353808353808353515e-02
4.054054054054054279e-01
8.599508599508599860e-02
8.599508599508599860e-02
4.054054054054054279e-01
7.199017199017199165e-01
7.223587223587223383e-01
7.235872235872236047e-01
8.845208845208844817e-02
4.090909090909091161e-01
8.476658476658475994e-02
8.845208845208844817e-02
8.845208845208844817e-02
4.054054054054054279e-01
8.599508599508599860e-02
4.041769041769041615e-01
4.029484029484029506e-01
8.108108108108108558e-02
8.108108108108108558e-02
3.992628992628992624e-01
7.862407862407862214e-02
7.862407862407862214e-02
3.980343980343980514e-01
7.174447174447174946e-01
3.968058968058967850e-01
3.943488943488943632e-01
3.931203931203930968e-01
7.100737100737101182e-01
7.100737100737101182e-01
7.100737100737101182e-01
7.027027027027027417e-01
3.869778869778869868e-01
6.941031941031940988e-01
6.904176904176904106e-01
3.771498771498771330e-01
3.746928746928747112e-01
6.805896805896806123e-01
6.781326781326780795e-01
5.405405405405405705e-02
3.648648648648648574e-01
3.660933660933660683e-01
3.660933660933660683e-01
5.405405405405405705e-02
5.405405405405405705e-02
3.673218673218673347e-01
5.528255528255528184e-02
7.616707616707617257e-02
7.985257985257984692e-02
7.985257985257984692e-02
7.248157248157248433e-02
7.862407862407862214e-02
7.862407862407862214e-02
1.597051597051596938e-01
1.621621621621621712e-01
1.683046683046683090e-01
1.756756756756756854e-01
1.805896805896805846e-01
1.867321867321867224e-01
1.941031941031940988e-01
1.977886977886977871e-01
2.014742014742014753e-01
2.002457002457002366e-01
1.953316953316953375e-01
1.891891891891891997e-01
1.805896805896805846e-01
1.744471744471744468e-01
1.670761670761670703e-01
1.609336609336609325e-01
1.584766584766584829e-01
1.547911547911547947e-01
4.066339066339066388e-01
7.223587223587223383e-01
2.002457002457002366e-01
1.965601965601965484e-01
1.781326781326781350e-01
1.781326781326781350e-01
1.744471744471744468e-01
1.756756756756756854e-01
1.769041769041768963e-01
1.879606879606879610e-01
1.744471744471744468e-01
1.744471744471744468e-01
1.769041769041768963e-01
1.732186732186732081e-01
1.756756756756756854e-01
1.818181818181818232e-01
1.891891891891891997e-01
7.223587223587223383e-01
9.090909090909091161e-02
4.066339066339066388e-01
9.090909090909091161e-02
7.223587223587223383e-01
9.090909090909091161e-02
9.336609336609336118e-02
4.078624078624078497e-01
4.078624078624078497e-01
7.248157248157248711e-01
7.272727272727272929e-01
7.272727272727272929e-01
4.103194103194103270e-01
4.090909090909091161e-01
4.090909090909091161e-01
4.090909090909091161e-01
7.223587223587223383e-01
4.090909090909091161e-01
9.950859950859951286e-02
4.115479115479115380e-01
4.115479115479115380e-01
1.007371007371007376e-01
1.007371007371007376e-01
4.115479115479115380e-01
7.260442260442260265e-01
4.140049140049140153e-01
9.582309582309582463e-02
9.582309582309582463e-02
9.582309582309582463e-02
9.582309582309582463e-02
9.582309582309582463e-02
4.140049140049140153e-01
7.321867321867321365e-01
7.321867321867321365e-01
4.140049140049140153e-01
4.140049140049140153e-01
4.140049140049140153e-01
4.140049140049140153e-01
9.828009828009827420e-02
9.828009828009827420e-02
9.828009828009827420e-02
9.828009828009827420e-02
9.828009828009827420e-02
4.127764127764127489e-01
4.127764127764127489e-01
4.127764127764127489e-01
9.459459459459459985e-02
4.140049140049140153e-01
4.140049140049140153e-01
4.140049140049140153e-01
4.140049140049140153e-01
4.140049140049140153e-01
4.140049140049140153e-01
4.140049140049140153e-01
9.828009828009827420e-02
4.140049140049140153e-01
4.140049140049140153e-01
9.828009828009827420e-02
7.272727272727272929e-01
4.115479115479115380e-01
9.582309582309582463e-02
4.090909090909091161e-01
4.078624078624078497e-01
4.066339066339066388e-01
7.199017199017199165e-01
4.029484029484029506e-01
4.017199017199017397e-01
7.199017199017199165e-01
7.199017199017199165e-01
4.054054054054054279e-01
9.090909090909091161e-02
9.213759213759213640e-02
4.066339066339066388e-01
7.235872235872236047e-01
7.272727272727272929e-01
4.127764127764127489e-01
9.828009828009827420e-02
7.272727272727272929e-01
7.321867321867321365e-01
7.346437346437346694e-01
9.705159705159704941e-02
1.019656019656019624e-01
1.031941031941031872e-01
1.031941031941031872e-01
1.031941031941031872e-01
1.031941031941031872e-01
1.031941031941031872e-01
1.031941031941031872e-01
1.031941031941031872e-01
1.031941031941031872e-01
1.031941031941031872e-01
4.189189189189189144e-01
4.189189189189189144e-01
1.007371007371007376e-01
7.985257985257984692e-02
6.879606879606879610e-02
6.511056511056510787e-02
6.781326781326780795e-01
6.535626535626535283e-01
6.412776412776413082e-01
7.125307125307125955e-02
1.498771498771498678e-01
2.162162162162162282e-01
6.609336609336609047e-01
3.120393120393120667e-01
2.641277641277641197e-01
2.162162162162162282e-01
1.855036855036855115e-01
1.609336609336609325e-01
1.326781326781326653e-01
1.179361179361179401e-01
1.093366093366093389e-01
7.223587223587223383e-01
4.127764127764127489e-01
9.459459459459459985e-02
9.090909090909091161e-02
9.090909090909091161e-02
8.845208845208844817e-02
7.321867321867321365e-01
7.321867321867321365e-01
7.334152334152334030e-01
8.353808353808353515e-02
8.353808353808353515e-02
4.054054054054054279e-01
4.041769041769041615e-01
8.108108108108108558e-02
7.862407862407862214e-02
4.004914004914004733e-01
7.616707616707617257e-02
7.371007371007370912e-02
7.371007371007370912e-02
7.125307125307125955e-02
3.943488943488943632e-01
7.174447174447174946e-01
3.882063882063881977e-01
7.149877149877149618e-01
5.651105651105651356e-02
3.820638820638820876e-01
3.783783783783783994e-01
6.990171990171990535e-01
4.054054054054054279e-02
3.194103194103194154e-02
2.825552825552825678e-02
2.211302211302211204e-02
1.719901719901719903e-02
6.904176904176904106e-01
6.891891891891891442e-01
6.830466830466830341e-01
6.805896805896806123e-01
6.769041769041769241e-01
6.769041769041769241e-01
3.366093366093366179e-01
3.378378378378378288e-01
0.000000000000000000e+00
7.371007371007371259e-03
1.105651105651105602e-02
1.965601965601965553e-02
2.948402948402948504e-02
4.054054054054054279e-02
4.668304668304668059e-02
6.019656019656019486e-02
6.633906633906633266e-02
7.125307125307125955e-02
7.616707616707617257e-02
3.955773955773955741e-01
7.137592137592138064e-01
8.353808353808353515e-02
8.599508599508599860e-02
4.029484029484029506e-01
7.199017199017199165e-01
7.199017199017199165e-01
4.029484029484029506e-01
8.845208845208844817e-02
8.968058968058968683e-02
4.054054054054054279e-01
7.199017199017199165e-01
4.066339066339066388e-01
4.066339066339066388e-01
4.054054054054054279e-01
7.199017199017199165e-01
7.223587223587223383e-01
4.078624078624078497e-01
4.078624078624078497e-01
7.223587223587223383e-01
4.066339066339066388e-01
4.066339066339066388e-01
4.066339066339066388e-01
9.090909090909091161e-02
9.090909090909091161e-02
4.054054054054054279e-01
4.054054054054054279e-01
4.054054054054054279e-01
9.090909090909091161e-02
9.090909090909091161e-02
9.090909090909091161e-02
4.041769041769041615e-01
7.174447174447174946e-01
7.174447174447174946e-01
7.174447174447174946e-01
4.054054054054054279e-01
7.199017199017199165e-01
7.199017199017199165e-01
4.054054054054054279e-01
7.199017199017199165e-01
7.211302211302211829e-01
4.078624078624078497e-01
9.336609336609336118e-02
7.223587223587223383e-01
7.223587223587223383e-01
9.336609336609336118e-02
4.066339066339066388e-01
4.066339066339066388e-01
9.336609336609336118e-02
4.054054054054054279e-01
4.054054054054054279e-01
7.174447174447174946e-01
7.174447174447174946e-01
4.041769041769041615e-01
4.041769041769041615e-01
4.041769041769041615e-01
7.174447174447174946e-01
7.174447174447174946e-01
7.199017199017199165e-01
9.336609336609336118e-02
9.336609336609336118e-02
9.336609336609336118e-02
9.336609336609336118e-02
4.090909090909091161e-01
4.090909090909091161e-01
4.090909090909091161e-01
4.090909090909091161e-01
4.090909090909091161e-01
7.223587223587223383e-01
7.223587223587223383e-01
7.223587223587223383e-01
7.223587223587223383e-01
4.078624078624078497e-01
4.078624078624078497e-01
9.213759213759213640e-02
4.078624078624078497e-01
4.078624078624078497e-01
9.582309582309582463e-02
4.078624078624078497e-01
7.199017199017199165e-01
4.090909090909091161e-01
9.582309582309582463e-02
4.103194103194103270e-01
4.103194103194103270e-01
4.103194103194103270e-01
4.103194103194103270e-01
9.582309582309582463e-02
9.582309582309582463e-02
9.582309582309582463e-02
9.582309582309582463e-02
4.090909090909091161e-01
7.223587223587223383e-01
7.223587223587223383e-01
4.066339066339066388e-01
9.336609336609336118e-02
9.336609336609336118e-02
4.054054054054054279e-01
9.336609336609336118e-02
9.090909090909091161e-02
4.029484029484029506e-01
4.017199017199017397e-01
8.845208845208844817e-02
8.845208845208844817e-02
4.017199017199017397e-01
8.845208845208844817e-02
8.845208845208844817e-02
4.017199017199017397e-01
7.149877149877149618e-01
7.186732186732186500e-01
7.199017199017199165e-01
7.199017199017199165e-01
9.336609336609336118e-02
9.582309582309582463e-02
9.336609336609336118e-02
4.090909090909091161e-01
7.248157248157248711e-01
4.127764127764127489e-01
9.828009828009827420e-02
9.828009828009827420e-02
9.828009828009827420e-02
1.007371007371007376e-01
4.127764127764127489e-01
7.272727272727272929e-01
4.140049140049140153e-01
9.828009828009827420e-02
7.272727272727272929e-01
4.115479115479115380e-01
9.582309582309582463e-02
9.582309582309582463e-02
9.213759213759213640e-02
9.090909090909091161e-02
7.002457002457002089e-02
6.633906633906633266e-02
6.572481572481572165e-01
6.621621621621621712e-01
6.400491400491400418e-01
6.203931203931204452e-01
9.705159705159704941e-02
1.572481572481572443e-01
2.285012285012285038e-01
6.560196560196560611e-01
4.828009828009828253e-01
2.506142506142506332e-01
2.051597051597051635e-01
1.744471744471744468e-01
1.511056511056511065e-01
1.289926289926290048e-01
1.117936117936117885e-01
4.103194103194103270e-01
4.078624078624078497e-01
9.213759213759213640e-02
8.968058968058968683e-02
8.722358722358722338e-02
8.230958230958231037e-02
8.353808353808353515e-02
4.004914004914004733e-01
4.004914004914004733e-01
3.992628992628992624e-01
3.992628992628992624e-01
3.980343980343980514e-01
3.968058968058967850e-01
7.371007371007370912e-02
3.955773955773955741e-01
3.943488943488943632e-01
6.633906633906633266e-02
3.918918918918918859e-01
3.906633906633906750e-01
6.265356265356265830e-02
3.882063882063881977e-01
7.125307125307125400e-01
3.832923832923832985e-01
3.808353808353808212e-01
5.159705159705159361e-02
4.791154791154791232e-02
4.668304668304668059e-02
4.299754299754299930e-02
3.808353808353808628e-02
3.194103194103194154e-02
2.702702702702702853e-02
2.211302211302211204e-02
3.525798525798525818e-01
3.488943488943488935e-01
7.371007371007371259e-03
6.732186732186732359e-01
6.719901719901719694e-01
6.707616707616708140e-01
6.707616707616708140e-01
6.707616707616708140e-01
6.707616707616708140e-01
6.695331695331695476e-01
3.341523341523341406e-01
3.685503685503685629e-03
9.828009828009827767e-03
1.965601965601965553e-02
2.579852579852579680e-02
3.685503685503685456e-02
4.545454545454545581e-02
5.405405405405405705e-02
6.867321867321867224e-01
6.904176904176904106e-01
3.832923832923832985e-01
7.616707616707617257e-02
3.906633906633906750e-01
3.931203931203930968e-01
3.955773955773955741e-01
8.599508599508599860e-02
8.722358722358722338e-02
4.004914004914004733e-01
7.125307125307125400e-01
7.100737100737101182e-01
7.125307125307125400e-01
7.149877149877149618e-01
4.041769041769041615e-01
4.041769041769041615e-01
7.174447174447174946e-01
4.041769041769041615e-01
4.041769041769041615e-01
7.174447174447174946e-01
4.029484029484029506e-01
8.845208845208844817e-02
8.845208845208844817e-02
4.017199017199017397e-01
7.149877149877149618e-01
4.004914004914004733e-01
4.004914004914004733e-01
4.004914004914004733e-01
8.599508599508599860e-02
8.722358722358722338e-02
8.845208845208844817e-02
4.017199017199017397e-01
4.017199017199017397e-01
4.011056511056511065e-01
4.004914004914004733e-01
4.004914004914004733e-01
4.004914004914004733e-01
4.004914004914004733e-01
7.137592137592138064e-01
7.137592137592138064e-01
4.029484029484029506e-01
4.029484029484029506e-01
9.090909090909091161e-02
7.149877149877149618e-01
4.041769041769041615e-01
4.041769041769041615e-01
9.336609336609336118e-02
4.029484029484029506e-01
9.336609336609336118e-02
9.336609336609336118e-02
4.041769041769041615e-01
7.149877149877149618e-01
9.336609336609336118e-02
9.336609336609336118e-02
9.336609336609336118e-02
9.336609336609336118e-02
9.336609336609336118e-02
9.336609336609336118e-02
9.336609336609336118e-02
9.336609336609336118e-02
9.336609336609336118e-02
9.336609336609336118e-02
9.336609336609336118e-02
9.336609336609336118e-02
9.336609336609336118e-02
4.054054054054054279e-01
7.174447174447174946e-01
7.174447174447174946e-01
7.174447174447174946e-01
7.174447174447174946e-01
7.174447174447174946e-01
7.174447174447174946e-01
7.174447174447174946e-01
5.614250614250614335e-01
4.054054054054054279e-01
4.054054054054054279e-01
4.054054054054054279e-01
4.041769041769041615e-01
4.041769041769041615e-01
4.041769041769041615e-01
4.041769041769041615e-01
4.041769041769041615e-01
7.149877149877149618e-01
4.041769041769041615e-01
4.054054054054054279e-01
4.054054054054054279e-01
4.054054054054054279e-01
7.149877149877149618e-01
4.041769041769041615e-01
7.248157248157248433e-02
7.371007371007370912e-02
7.493857493857493390e-02
7.616707616707617257e-02
7.371007371007370912e-02
7.862407862407862214e-02
1.584766584766584829e-01
1.621621621621621712e-01
1.695331695331695199e-01
1.769041769041768963e-01
1.855036855036855115e-01
1.916461916461916493e-01
1.953316953316953375e-01
1.990171990171990257e-01
2.014742014742014753e-01
1.977886977886977871e-01
1.941031941031940988e-01
1.867321867321867224e-01
1.793611793611793737e-01
1.744471744471744468e-01
1.670761670761670703e-01
1.621621621621621712e-01
1.609336609336609325e-01
7.100737100737101182e-01
3.968058968058967850e-01
3.968058968058967850e-01
1.793611793611793737e-01
1.805896805896805846e-01
1.830466830466830341e-01
1.830466830466830341e-01
1.769041769041768963e-01
1.867321867321867224e-01
1.719901719901719972e-01
1.695331695331695199e-01
1.707616707616707585e-01
1.732186732186732081e-01
1.719901719901719972e-01
1.732186732186732081e-01
1.830466830466830341e-01
1.830466830466830341e-01
1.867321867321867224e-01
8.845208845208844817e-02
8.845208845208844817e-02
4.041769041769041615e-01
4.029484029484029506e-01
9.828009828009827420e-02
9.828009828009827420e-02
6.891891891891891442e-01
3.820638820638820876e-01
7.125307125307125955e-02
4.914004914004913710e-02
6.203931203931204452e-01
6.167076167076167570e-01
6.228501228501228670e-01
6.289926289926289771e-01
6.388206388206387754e-01
6.511056511056510787e-02
7.493857493857493390e-02
8.108108108108108558e-02
4.017199017199017397e-01
4.041769041769041615e-01
4.041769041769041615e-01
7.199017199017199165e-01
7.211302211302211829e-01
7.199017199017199165e-01
7.199017199017199165e-01
4.029484029484029506e-01
7.199017199017199165e-01
8.353808353808353515e-02
4.004914004914004733e-01
4.004914004914004733e-01
3.992628992628992624e-01
3.992628992628992624e-01
8.108108108108108558e-02
3.980343980343980514e-01
3.968058968058967850e-01
3.968058968058967850e-01
7.862407862407862214e-02
3.955773955773955741e-01
3.943488943488943632e-01
3.931203931203930968e-01
3.931203931203930968e-01
3.918918918918918859e-01
3.906633906633906750e-01
3.906633906633906750e-01
7.371007371007370912e-02
7.051597051597051635e-01
7.027027027027027417e-01
6.977886977886977871e-01
3.832923832923832985e-01
3.820638820638820876e-01
6.928746928746928324e-01
6.916461916461916770e-01
5.896805896805897007e-02
6.867321867321867224e-01
6.830466830466830341e-01
3.660933660933660683e-01
3.636363636363636465e-01
3.611793611793611691e-01
6.732186732186732359e-01
6.719901719901719694e-01
6.646191646191645930e-01
6.646191646191645930e-01
3.194103194103194154e-02
6.633906633906634376e-01
3.476658476658476826e-01
3.488943488943488935e-01
3.439803439803439805e-02
3.513513513513513709e-01
4.054054054054054279e-02
4.545454545454545581e-02
6.707616707616708140e-01
6.756756756756756577e-01
6.805896805896806123e-01
3.734643734643734447e-01
3.783783783783783994e-01
6.928746928746928324e-01
6.990171990171990535e-01
3.894348894348894086e-01
7.616707616707617257e-02
3.918918918918918859e-01
3.918918918918918859e-01
3.931203931203930968e-01
8.353808353808353515e-02
3.943488943488943632e-01
8.353808353808353515e-02
3.955773955773955741e-01
7.076167076167075853e-01
7.100737100737101182e-01
3.992628992628992624e-01
3.992628992628992624e-01
3.992628992628992624e-01
3.992628992628992624e-01
3.992628992628992624e-01
8.353808353808353515e-02
3.980343980343980514e-01
7.125307125307125400e-01
3.968058968058967850e-01
3.968058968058967850e-01
8.108108108108108558e-02
3.968058968058967850e-01
7.162162162162162282e-01
7.125307125307125400e-01
7.100737100737101182e-01
7.100737100737101182e-01
7.100737100737101182e-01
7.125307125307125400e-01
3.980343980343980514e-01
3.980343980343980514e-01
3.980343980343980514e-01
8.353808353808353515e-02
8.353808353808353515e-02
8.353808353808353515e-02
7.149877149877149618e-01
7.162162162162162282e-01
8.599508599508599860e-02
8.722358722358722338e-02
4.029484029484029506e-01
8.845208845208844817e-02
7.149877149877149618e-01
8.845208845208844817e-02
8.845208845208844817e-02
4.017199017199017397e-01
4.017199017199017397e-01
4.017199017199017397e-01
8.845208845208844817e-02
8.845208845208844817e-02
4.017199017199017397e-01
4.017199017199017397e-01
4.017199017199017397e-01
8.599508599508599860e-02
8.599508599508599860e-02
8.599508599508599860e-02
8.599508599508599860e-02
4.004914004914004733e-01
4.004914004914004733e-01
4.004914004914004733e-01
4.004914004914004733e-01
4.004914004914004733e-01
7.149877149877149618e-01
7.149877149877149618e-01
8.476658476658475994e-02
4.004914004914004733e-01
7.125307125307125400e-01
7.125307125307125400e-01
3.992628992628992624e-01
7.137592137592138064e-01
7.162162162162162282e-01
4.029484029484029506e-01
8.599508599508599860e-02
4.017199017199017397e-01
7.174447174447174946e-01
4.017199017199017397e-01
4.017199017199017397e-01
4.017199017199017397e-01
8.845208845208844817e-02
7.125307125307125400e-01
7.149877149877149618e-01
7.162162162162162282e-01
4.029484029484029506e-01
4.029484029484029506e-01
8.599508599508599860e-02
8.599508599508599860e-02
8.599508599508599860e-02
8.599508599508599860e-02
8.599508599508599860e-02
8.599508599508599860e-02
8.599508599508599860e-02
8.599508599508599860e-02
4.017199017199017397e-01
4.004914004914004733e-01
3.992628992628992624e-01
7.125307125307125400e-01
7.125307125307125400e-01
7.100737100737101182e-01
3.968058968058967850e-01
3.955773955773955741e-01
3.943488943488943632e-01
3.931203931203930968e-01
7.014742014742014753e-01
7.100737100737101182e-01
7.100737100737101182e-01
3.980343980343980514e-01
3.980343980343980514e-01
7.125307125307125400e-01
7.162162162162162282e-01
4.029484029484029506e-01
8.599508599508599860e-02
4.041769041769041615e-01
4.041769041769041615e-01
4.041769041769041615e-01
9.090909090909091161e-02
9.090909090909091161e-02
7.211302211302211829e-01
7.223587223587223383e-01
7.223587223587223383e-01
8.845208845208844817e-02
8.845208845208844817e-02
4.041769041769041615e-01
4.041769041769041615e-01
4.029484029484029506e-01
7.174447174447174946e-01
4.029484029484029506e-01
9.828009828009827420e-02
4.090909090909091161e-01
6.916461916461916770e-01
6.658476658476658594e-01
6.633906633906633266e-02
4.545454545454545581e-02
6.253071253071252888e-01
6.228501228501228670e-01
6.253071253071252888e-01
6.314496314496313989e-01
3.513513513513513709e-01
6.670761670761671258e-01
6.953316953316953652e-01
7.199017199017199165e-01
4.078624078624078497e-01
8.845208845208844817e-02
4.054054054054054279e-01
7.223587223587223383e-01
7.223587223587223383e-01
7.199017199017199165e-01
7.199017199017199165e-01
7.199017199017199165e-01
4.041769041769041615e-01
4.041769041769041615e-01
4.041769041769041615e-01
8.599508599508599860e-02
8.599508599508599860e-02
4.029484029484029506e-01
7.199017199017199165e-01
7.199017199017199165e-01
8.353808353808353515e-02
8.353808353808353515e-02
4.004914004914004733e-01
3.992628992628992624e-01
8.108108108108108558e-02
3.980343980343980514e-01
3.968058968058967850e-01
7.862407862407862214e-02
7.125307125307125400e-01
3.931203931203930968e-01
7.616707616707617257e-02
3.906633906633906750e-01
7.371007371007370912e-02
7.125307125307125955e-02
6.879606879606879610e-02
3.845208845208845094e-01
3.832923832923832985e-01
6.388206388206388309e-02
6.953316953316953652e-01
3.746928746928747112e-01
6.855036855036854559e-01
6.818181818181817677e-01
4.791154791154791232e-02
4.668304668304668059e-02
4.176904176904176758e-02
3.808353808353808628e-02
6.695331695331695476e-01
6.658476658476658594e-01
6.646191646191645930e-01
6.633906633906634376e-01
2.948402948402948504e-02
6.572481572481572165e-01
6.560196560196560611e-01
3.194103194103194154e-02
3.685503685503685456e-02
4.422604422604422408e-02
4.791154791154791232e-02
5.282555282555282533e-02
3.648648648648648574e-01
6.732186732186732359e-01
6.781326781326780795e-01
6.842751842751843006e-01
6.891891891891891442e-01
6.928746928746928324e-01
6.965601965601965206e-01
3.869778869778869868e-01
3.882063882063881977e-01
7.862407862407862214e-02
3.894348894348894086e-01
3.894348894348894086e-01
7.862407862407862214e-02
7.862407862407862214e-02
7.027027027027027417e-01
7.027027027027027417e-01
3.906633906633906750e-01
7.616707616707617257e-02
3.906633906633906750e-01
3.906633906633906750e-01
7.616707616707617257e-02
3.918918918918918859e-01
7.076167076167075853e-01
7.051597051597051635e-01
3.894348894348894086e-01
7.051597051597051635e-01
7.051597051597051635e-01
7.039312039312038971e-01
7.027027027027027417e-01
7.002457002457002089e-01
3.882063882063881977e-01
3.882063882063881977e-01
7.027027027027027417e-01
7.027027027027027417e-01
7.014742014742014753e-01
6.953316953316953652e-01
6.928746928746928324e-01
7.371007371007370912e-02
3.796068796068796103e-01
6.818181818181817677e-01
6.805896805896806123e-01
6.842751842751843006e-01
6.879606879606879888e-01
6.904176904176904106e-01
6.891891891891891442e-01
6.879606879606879888e-01
6.879606879606879888e-01
3.808353808353808212e-01
3.808353808353808212e-01
3.808353808353808212e-01
7.125307125307125955e-02
3.820638820638820876e-01
3.820638820638820876e-01
3.820638820638820876e-01
7.125307125307125955e-02
7.125307125307125955e-02
7.125307125307125955e-02
7.125307125307125955e-02
7.125307125307125955e-02
7.125307125307125955e-02
3.820638820638820876e-01
6.904176904176904106e-01
6.879606879606879888e-01
6.855036855036854559e-01
3.783783783783783994e-01
3.783783783783783994e-01
3.783783783783783994e-01
3.783783783783783994e-01
6.879606879606879888e-01
6.879606879606879888e-01
3.783783783783783994e-01
6.879606879606879610e-02
6.879606879606879610e-02
3.796068796068796103e-01
6.904176904176904106e-01
6.879606879606879888e-01
6.879606879606879888e-01
6.879606879606879888e-01
3.796068796068796103e-01
6.867321867321867224e-01
6.867321867321867224e-01
3.771498771498771330e-01
6.855036855036854559e-01
3.783783783783783994e-01
3.783783783783783994e-01
3.796068796068796103e-01
7.371007371007370912e-02
3.808353808353808212e-01
3.808353808353808212e-01
3.808353808353808212e-01
6.879606879606879888e-01
3.808353808353808212e-01
6.904176904176904106e-01
6.867321867321867224e-01
3.783783783783783994e-01
7.125307125307125955e-02
6.855036855036854559e-01
6.855036855036854559e-01
6.818181818181817677e-01
6.781326781326780795e-01
6.781326781326780795e-01
6.818181818181817677e-01
3.759213759213759221e-01
3.771498771498771330e-01
6.879606879606879888e-01
3.771498771498771330e-01
6.916461916461916770e-01
6.842751842751843006e-01
6.830466830466830341e-01
6.781326781326780795e-01
6.781326781326780795e-01
3.722358722358722338e-01
3.722358722358722338e-01
3.734643734643734447e-01
3.734643734643734447e-01
6.781326781326780795e-01
6.756756756756756577e-01
6.732186732186732359e-01
6.732186732186732359e-01
6.707616707616708140e-01
6.732186732186732359e-01
3.710073710073710229e-01
3.722358722358722338e-01
3.722358722358722338e-01
7.125307125307125955e-02
3.771498771498771330e-01
7.985257985257984692e-02
6.658476658476658594e-01
3.574938574938574809e-01
6.388206388206388309e-02
5.945945945945946276e-01
5.909090909090909394e-01
5.835380835380835629e-01
5.847665847665847183e-01
6.019656019656020041e-01
6.117936117936118023e-01
6.240786240786241335e-01
5.773955773955773835e-02
