0.000000000000000000e+00
0.000000000000000000e+00
7.694360434086499299e-03
1.538872086817299860e-02
2.308308130225930274e-02
3.077744173634580291e-02
3.847180217043229961e-02
4.616616260451879977e-02
5.386052303860529994e-02
6.155488347269160582e-02
6.924924390677809904e-02
7.694360434086459921e-02
8.463796477495109938e-02
9.233232520903759954e-02
1.000266856431239054e-01
1.077210460772104056e-01
1.154154065112969058e-01
1.231097669453834059e-01
1.308041273794698922e-01
1.384984878135561981e-01
1.461928482476426983e-01
1.538872086817291984e-01
1.615815691158156986e-01
1.692759295499021988e-01
1.769702899839885046e-01
1.846646504180750048e-01
1.923590108521615050e-01
2.000533712862480051e-01
2.077477317203345053e-01
2.154420921544208112e-01
2.231364525885073113e-01
2.308308130225938115e-01
2.385251734566803117e-01
2.462195338907668118e-01
2.539138943248531177e-01
2.616082547589396179e-01
2.693026151930261181e-01
2.769969756271126182e-01
2.846913360611991184e-01
2.923856964952853965e-01
3.000800569293721187e-01
3.077744173634583968e-01
3.154687777975448970e-01
3.231631382316313972e-01
3.308574986657177308e-01
3.385518590998043975e-01
3.462462195338907311e-01
3.539405799679770093e-01
3.616349404020637315e-01
3.693293008361500096e-01
3.770236612702367318e-01
3.847180217043230099e-01
3.924123821384097321e-01
4.001067425724960103e-01
4.078011030065823439e-01
4.154954634406690106e-01
4.231898238747553442e-01
4.308841843088416224e-01
4.385785447429283446e-01
4.462729051770146227e-01
4.539672656111013449e-01
4.616616260451876230e-01
4.693559864792743452e-01
4.770503469133606234e-01
4.847447073474469570e-01
4.924390677815336237e-01
5.001334282156199018e-01
5.078277886497062354e-01
5.155221490837929021e-01
5.232165095178792358e-01
5.309108699519659025e-01
5.386052303860522361e-01
5.462995908201389028e-01
5.539939512542252364e-01
5.616883116883115701e-01
5.693826721223982368e-01
5.770770325564845704e-01
5.847713929905707930e-01
5.924657534246575707e-01
3.253424657534246811e-01
3.219178082191780921e-01
3.184931506849315030e-01
5.479452054794520244e-02
5.479452054794520244e-02
5.479452054794520244e-02
5.479452054794520244e-02
5.479452054794520244e-02
5.479452054794520244e-02
5.479452054794520244e-02
5.479452054794520244e-02
5.479452054794520244e-02
5.479452054794520244e-02
5.479452054794520244e-02
5.479452054794520244e-02
5.479452054794520244e-02
5.479452054794520244e-02
5.479452054794520244e-02
5.479452054794520244e-02
5.479452054794520244e-02
5.479452054794520244e-02
5.479452054794520244e-02
5.479452054794520244e-02
5.479452054794520244e-02
5.479452054794520244e-02
5.479452054794520244e-02
5.479452054794520244e-02
5.479452054794520244e-02
5.479452054794520244e-02
5.479452054794520244e-02
5.479452054794520244e-02
5.479452054794520244e-02
5.479452054794520244e-02
5.479452054794520244e-02
5.479452054794520244e-02
5.479452054794520244e-02
5.479452054794520244e-02
5.479452054794520244e-02
5.479452054794520244e-02
3.253424657534246811e-01
3.287671232876712146e-01
3.321917808219178037e-01
5.787671232876712146e-01
8.869863013698630061e-01
8.767123287671232390e-01
8.732876712328767610e-01
6.369863013698630061e-01
6.438356164383561842e-01
6.438356164383561842e-01
6.130136986301369939e-01
5.616438356164383805e-01
4.726027397260273988e-01
3.561643835616438158e-01
2.534246575342465890e-01
2.054794520547945091e-01
3.116438356164383805e-01
4.212328767123287854e-01
5.273972602739726012e-01
6.061643835616438158e-01
6.301369863013698280e-01
6.164383561643835829e-01
6.130136986301369939e-01
6.232876712328767610e-01
6.301369863013698280e-01
6.232876712328767610e-01
6.164383561643835829e-01
6.130136986301369939e-01
6.130136986301369939e-01
6.267123287671232390e-01
6.267123287671232390e-01
6.301369863013698280e-01
6.198630136986301720e-01
6.130136986301369939e-01
6.164383561643835829e-01
6.198630136986301720e-01
6.198630136986301720e-01
6.198630136986301720e-01
6.164383561643835829e-01
6.232876712328767610e-01
6.267123287671232390e-01
6.232876712328767610e-01
6.164383561643835829e-01
6.164383561643835829e-01
6.164383561643835829e-01
6.164383561643835829e-01
6.232876712328767610e-01
6.198630136986301720e-01
6.130136986301369939e-01
6.095890410958904049e-01
6.061643835616438158e-01
6.095890410958904049e-01
6.095890410958904049e-01
5.993150684931506378e-01
5.993150684931506378e-01
5.958904109589041598e-01
5.924657534246575707e-01
5.890410958904109817e-01
5.856164383561643927e-01
5.890410958904109817e-01
5.856164383561643927e-01
5.821917808219178037e-01
5.753424657534246256e-01
5.684931506849315586e-01
5.582191780821917915e-01
5.513698630136986134e-01
5.410958904109589573e-01
5.376712328767123683e-01
5.308219178082191902e-01
5.273972602739726012e-01
5.171232876712328341e-01
5.068493150684931781e-01
5.000000000000000000e-01
4.931506849315068219e-01
4.828767123287671104e-01
4.897260273972602884e-01
4.965753424657534110e-01
5.171232876712328341e-01
5.342465753424657793e-01
5.479452054794520244e-01
5.616438356164383805e-01
5.719178082191780366e-01
5.856164383561643927e-01
5.958904109589041598e-01
6.061643835616438158e-01
6.130136986301369939e-01
6.130136986301369939e-01
6.095890410958904049e-01
6.164383561643835829e-01
6.164383561643835829e-01
6.232876712328767610e-01
6.198630136986301720e-01
6.198630136986301720e-01
6.198630136986301720e-01
6.198630136986301720e-01
6.301369863013698280e-01
6.472602739726027732e-01
6.506849315068493622e-01
6.301369863013698280e-01
6.301369863013698280e-01
6.404109589041095951e-01
6.472602739726027732e-01
6.404109589041095951e-01
6.335616438356164171e-01
6.267123287671232390e-01
6.301369863013698280e-01
6.301369863013698280e-01
6.301369863013698280e-01
6.335616438356164171e-01
6.438356164383561842e-01
6.438356164383561842e-01
6.404109589041095951e-01
6.438356164383561842e-01
6.506849315068493622e-01
6.404109589041095951e-01
6.404109589041095951e-01
6.369863013698630061e-01
6.369863013698630061e-01
6.335616438356164171e-01
6.335616438356164171e-01
6.335616438356164171e-01
6.438356164383561842e-01
6.541095890410958402e-01
6.506849315068493622e-01
6.369863013698630061e-01
6.438356164383561842e-01
6.438356164383561842e-01
6.369863013698630061e-01
6.335616438356164171e-01
6.335616438356164171e-01
6.335616438356164171e-01
6.301369863013698280e-01
6.301369863013698280e-01
6.301369863013698280e-01
6.335616438356164171e-01
6.335616438356164171e-01
6.335616438356164171e-01
6.301369863013698280e-01
6.301369863013698280e-01
6.301369863013698280e-01
6.301369863013698280e-01
6.335616438356164171e-01
6.369863013698630061e-01
6.335616438356164171e-01
6.335616438356164171e-01
6.335616438356164171e-01
6.267123287671232390e-01
6.198630136986301720e-01
6.267123287671232390e-01
6.369863013698630061e-01
6.506849315068493622e-01
6.506849315068493622e-01
6.369863013698630061e-01
6.438356164383561842e-01
6.472602739726027732e-01
6.369863013698630061e-01
6.369863013698630061e-01
6.369863013698630061e-01
6.369863013698630061e-01
6.335616438356164171e-01
6.438356164383561842e-01
6.541095890410958402e-01
6.575342465753424293e-01
6.541095890410958402e-01
6.609589041095890183e-01
6.643835616438356073e-01
6.609589041095890183e-01
6.506849315068493622e-01
6.506849315068493622e-01
6.438356164383561842e-01
6.301369863013698280e-01
6.369863013698630061e-01
6.404109589041095951e-01
6.404109589041095951e-01
6.301369863013698280e-01
6.232876712328767610e-01
6.164383561643835829e-01
6.198630136986301720e-01
6.095890410958904049e-01
5.958904109589041598e-01
5.856164383561643927e-01
5.821917808219178037e-01
5.856164383561643927e-01
5.958904109589041598e-01
5.993150684931506378e-01
5.924657534246575707e-01
5.958904109589041598e-01
6.027397260273972268e-01
6.198630136986301720e-01
6.335616438356164171e-01
6.404109589041095951e-01
6.404109589041095951e-01
6.404109589041095951e-01
6.404109589041095951e-01
6.404109589041095951e-01
6.404109589041095951e-01
6.404109589041095951e-01
6.404109589041095951e-01
6.301369863013698280e-01
6.335616438356164171e-01
6.404109589041095951e-01
6.472602739726027732e-01
5.993150684931506378e-01
5.410958904109589573e-01
4.486301369863013866e-01
3.356164383561643927e-01
2.500000000000000000e-01
2.260273972602739601e-01
3.390410958904109817e-01
4.589041095890410982e-01
5.410958904109589573e-01
6.267123287671232390e-01
6.267123287671232390e-01
6.164383561643835829e-01
6.164383561643835829e-01
6.232876712328767610e-01
6.267123287671232390e-01
6.404109589041095951e-01
6.438356164383561842e-01
6.335616438356164171e-01
6.301369863013698280e-01
6.301369863013698280e-01
6.301369863013698280e-01
6.369863013698630061e-01
6.404109589041095951e-01
6.404109589041095951e-01
6.369863013698630061e-01
6.301369863013698280e-01
6.301369863013698280e-01
6.301369863013698280e-01
6.198630136986301720e-01
6.198630136986301720e-01
6.232876712328767610e-01
6.198630136986301720e-01
6.198630136986301720e-01
6.267123287671232390e-01
6.335616438356164171e-01
6.318493150684931781e-01
6.301369863013698280e-01
6.301369863013698280e-01
6.198630136986301720e-01
6.130136986301369939e-01
6.130136986301369939e-01
6.164383561643835829e-01
6.164383561643835829e-01
6.095890410958904049e-01
5.958904109589041598e-01
5.890410958904109817e-01
5.890410958904109817e-01
5.890410958904109817e-01
5.890410958904109817e-01
5.821917808219178037e-01
5.719178082191780366e-01
5.719178082191780366e-01
5.787671232876712146e-01
5.787671232876712146e-01
5.582191780821917915e-01
5.513698630136986134e-01
5.410958904109589573e-01
5.273972602739726012e-01
5.068493150684931781e-01
5.068493150684931781e-01
4.931506849315068219e-01
5.000000000000000000e-01
5.068493150684931781e-01
5.102739726027397671e-01
5.102739726027397671e-01
5.102739726027397671e-01
5.136986301369863561e-01
5.171232876712328341e-01
5.239726027397260122e-01
5.376712328767123683e-01
5.479452054794520244e-01
5.616438356164383805e-01
5.719178082191780366e-01
5.787671232876712146e-01
5.890410958904109817e-01
5.958904109589041598e-01
6.027397260273972268e-01
6.061643835616438158e-01
6.095890410958904049e-01
6.198630136986301720e-01
6.198630136986301720e-01
6.164383561643835829e-01
6.267123287671232390e-01
6.301369863013698280e-01
6.369863013698630061e-01
6.369863013698630061e-01
6.369863013698630061e-01
6.404109589041095951e-01
6.404109589041095951e-01
6.404109589041095951e-01
6.369863013698630061e-01
6.301369863013698280e-01
6.232876712328767610e-01
6.164383561643835829e-01
6.232876712328767610e-01
6.267123287671232390e-01
6.369863013698630061e-01
6.335616438356164171e-01
6.335616438356164171e-01
6.301369863013698280e-01
6.301369863013698280e-01
6.301369863013698280e-01
6.301369863013698280e-01
6.267123287671232390e-01
6.267123287671232390e-01
6.232876712328767610e-01
6.232876712328767610e-01
6.335616438356164171e-01
6.335616438356164171e-01
6.232876712328767610e-01
6.130136986301369939e-01
6.164383561643835829e-01
6.232876712328767610e-01
6.301369863013698280e-01
6.335616438356164171e-01
6.335616438356164171e-01
6.369863013698630061e-01
6.369863013698630061e-01
6.369863013698630061e-01
6.369863013698630061e-01
6.404109589041095951e-01
6.404109589041095951e-01
6.404109589041095951e-01
6.404109589041095951e-01
6.369863013698630061e-01
6.267123287671232390e-01
6.232876712328767610e-01
6.232876712328767610e-01
6.301369863013698280e-01
6.301369863013698280e-01
6.267123287671232390e-01
6.301369863013698280e-01
6.438356164383561842e-01
6.506849315068493622e-01
6.506849315068493622e-01
6.506849315068493622e-01
6.472602739726027732e-01
6.404109589041095951e-01
6.404109589041095951e-01
6.369863013698630061e-01
6.369863013698630061e-01
6.369863013698630061e-01
6.369863013698630061e-01
6.369863013698630061e-01
6.369863013698630061e-01
6.369863013698630061e-01
6.335616438356164171e-01
6.301369863013698280e-01
6.404109589041095951e-01
6.438356164383561842e-01
6.506849315068493622e-01
6.404109589041095951e-01
6.369863013698630061e-01
6.335616438356164171e-01
6.267123287671232390e-01
6.301369863013698280e-01
6.369863013698630061e-01
6.301369863013698280e-01
6.335616438356164171e-01
6.438356164383561842e-01
6.472602739726027732e-01
6.369863013698630061e-01
6.301369863013698280e-01
6.198630136986301720e-01
6.130136986301369939e-01
6.164383561643835829e-01
6.164383561643835829e-01
6.164383561643835829e-01
6.130136986301369939e-01
6.061643835616438158e-01
5.993150684931506378e-01
5.958904109589041598e-01
5.856164383561643927e-01
5.719178082191780366e-01
5.753424657534246256e-01
5.753424657534246256e-01
5.958904109589041598e-01
6.061643835616438158e-01
6.232876712328767610e-01
6.369863013698630061e-01
6.472602739726027732e-01
6.506849315068493622e-01
6.369863013698630061e-01
6.335616438356164171e-01
6.404109589041095951e-01
6.506849315068493622e-01
6.472602739726027732e-01
6.404109589041095951e-01
6.404109589041095951e-01
6.404109589041095951e-01
6.369863013698630061e-01
6.369863013698630061e-01
5.719178082191780366e-01
5.479452054794520244e-01
4.417808219178082085e-01
3.253424657534246811e-01
2.328767123287671104e-01
2.123287671232876594e-01
3.424657534246575152e-01
4.794520547945205213e-01
5.582191780821917915e-01
6.232876712328767610e-01
6.130136986301369939e-01
6.130136986301369939e-01
6.301369863013698280e-01
6.369863013698630061e-01
6.404109589041095951e-01
6.404109589041095951e-01
6.404109589041095951e-01
6.404109589041095951e-01
6.369863013698630061e-01
6.369863013698630061e-01
6.335616438356164171e-01
6.335616438356164171e-01
6.335616438356164171e-01
6.301369863013698280e-01
6.267123287671232390e-01
6.198630136986301720e-01
6.198630136986301720e-01
6.232876712328767610e-01
6.301369863013698280e-01
6.335616438356164171e-01
6.369863013698630061e-01
6.301369863013698280e-01
6.301369863013698280e-01
6.232876712328767610e-01
6.232876712328767610e-01
6.198630136986301720e-01
6.232876712328767610e-01
6.198630136986301720e-01
6.198630136986301720e-01
6.198630136986301720e-01
6.164383561643835829e-01
5.993150684931506378e-01
5.924657534246575707e-01
5.993150684931506378e-01
6.027397260273972268e-01
6.027397260273972268e-01
5.993150684931506378e-01
5.993150684931506378e-01
5.890410958904109817e-01
5.856164383561643927e-01
5.684931506849315586e-01
5.616438356164383805e-01
5.547945205479452024e-01
5.479452054794520244e-01
5.479452054794520244e-01
5.445205479452054353e-01
5.410958904109589573e-01
5.342465753424657793e-01
5.273972602739726012e-01
5.136986301369863561e-01
4.965753424657534110e-01
4.931506849315068219e-01
4.863013698630136994e-01
4.931506849315068219e-01
4.965753424657534110e-01
5.102739726027397671e-01
5.239726027397260122e-01
5.308219178082191902e-01
5.308219178082191902e-01
5.445205479452054353e-01
5.650684931506849695e-01
5.856164383561643927e-01
6.095890410958904049e-01
6.095890410958904049e-01
6.061643835616438158e-01
5.958904109589041598e-01
5.924657534246575707e-01
5.958904109589041598e-01
6.061643835616438158e-01
6.130136986301369939e-01
6.164383561643835829e-01
6.232876712328767610e-01
6.301369863013698280e-01
6.301369863013698280e-01
6.335616438356164171e-01
6.404109589041095951e-01
6.404109589041095951e-01
6.438356164383561842e-01
6.404109589041095951e-01
6.404109589041095951e-01
6.369863013698630061e-01
6.369863013698630061e-01
6.369863013698630061e-01
6.404109589041095951e-01
6.404109589041095951e-01
6.369863013698630061e-01
5.958904109589041598e-01
5.958904109589041598e-01
5.958904109589041598e-01
5.958904109589041598e-01
5.958904109589041598e-01
5.958904109589041598e-01
9.315068493150684414e-01
9.178082191780821963e-01
9.109589041095890183e-01
8.835616438356164171e-01
8.972602739726027732e-01
8.801369863013698280e-01
8.801369863013698280e-01
8.972602739726027732e-01
8.698630136986301720e-01
8.698630136986301720e-01
8.732876712328767610e-01
8.972602739726027732e-01
9.041095890410958402e-01
9.075342465753424293e-01
5.924657534246575707e-01
5.890410958904109817e-01
5.993150684931506378e-01
7.123287671232876317e-01
8.253424657534246256e-01
8.321917808219178037e-01
8.595890410958904049e-01
8.801369863013698280e-01
9.006849315068493622e-01
9.143835616438356073e-01
9.349315068493150305e-01
9.452054794520547976e-01
9.452054794520547976e-01
9.280821917808219634e-01
9.178082191780821963e-01
9.041095890410958402e-01
8.835616438356164171e-01
8.698630136986301720e-01
8.458904109589041598e-01
8.356164383561643927e-01
8.219178082191780366e-01
7.157534246575342207e-01
6.027397260273972268e-01
6.027397260273972268e-01
6.027397260273972268e-01
8.253424657534246256e-01
8.835616438356164171e-01
8.835616438356164171e-01
8.801369863013698280e-01
8.219178082191780366e-01
8.253424657534246256e-01
8.253424657534246256e-01
8.219178082191780366e-01
8.253424657534246256e-01
8.287671232876712146e-01
8.321917808219178037e-01
8.595890410958904049e-01
8.630136986301369939e-01
8.732876712328767610e-01
8.732876712328767610e-01
9.417808219178082085e-01
7.876712328767123683e-01
6.130136986301369939e-01
6.130136986301369939e-01
6.130136986301369939e-01
6.130136986301369939e-01
6.198630136986301720e-01
6.198630136986301720e-01
6.335616438356164171e-01
6.438356164383561842e-01
6.541095890410958402e-01
6.643835616438356073e-01
6.678082191780821963e-01
6.678082191780821963e-01
6.643835616438356073e-01
6.506849315068493622e-01
6.335616438356164171e-01
6.267123287671232390e-01
6.164383561643835829e-01
6.095890410958904049e-01
6.095890410958904049e-01
6.061643835616438158e-01
6.061643835616438158e-01
6.061643835616438158e-01
6.027397260273972268e-01
5.993150684931506378e-01
5.924657534246575707e-01
5.856164383561643927e-01
5.856164383561643927e-01
5.890410958904109817e-01
5.821917808219178037e-01
5.753424657534246256e-01
5.890410958904109817e-01
6.198630136986301720e-01
6.712328767123287854e-01
7.328767123287671659e-01
8.321917808219178037e-01
9.178082191780821963e-01
9.691780821917808098e-01
8.938356164383561842e-01
7.705479452054794232e-01
6.883561643835616195e-01
6.027397260273972268e-01
5.958904109589041598e-01
5.958904109589041598e-01
6.061643835616438158e-01
6.061643835616438158e-01
6.027397260273972268e-01
5.856164383561643927e-01
5.890410958904109817e-01
5.890410958904109817e-01
6.027397260273972268e-01
5.993150684931506378e-01
5.958904109589041598e-01
5.924657534246575707e-01
5.890410958904109817e-01
5.890410958904109817e-01
5.890410958904109817e-01
5.924657534246575707e-01
5.924657534246575707e-01
5.924657534246575707e-01
5.924657534246575707e-01
5.993150684931506378e-01
6.061643835616438158e-01
6.130136986301369939e-01
6.130136986301369939e-01
6.061643835616438158e-01
6.095890410958904049e-01
6.164383561643835829e-01
6.232876712328767610e-01
6.232876712328767610e-01
6.164383561643835829e-01
6.164383561643835829e-01
6.232876712328767610e-01
6.232876712328767610e-01
6.232876712328767610e-01
6.232876712328767610e-01
6.130136986301369939e-01
6.130136986301369939e-01
6.164383561643835829e-01
6.164383561643835829e-01
6.130136986301369939e-01
6.267123287671232390e-01
6.301369863013698280e-01
6.404109589041095951e-01
6.506849315068493622e-01
6.506849315068493622e-01
6.541095890410958402e-01
6.506849315068493622e-01
6.575342465753424293e-01
6.678082191780821963e-01
6.678082191780821963e-01
6.780821917808219634e-01
6.815068493150684414e-01
6.883561643835616195e-01
6.849315068493150305e-01
6.917808219178082085e-01
6.952054794520547976e-01
6.952054794520547976e-01
6.883561643835616195e-01
6.712328767123287854e-01
6.678082191780821963e-01
6.438356164383561842e-01
6.335616438356164171e-01
6.198630136986301720e-01
6.130136986301369939e-01
6.061643835616438158e-01
6.027397260273972268e-01
5.924657534246575707e-01
5.856164383561643927e-01
5.684931506849315586e-01
5.616438356164383805e-01
5.582191780821917915e-01
5.547945205479452024e-01
5.547945205479452024e-01
5.547945205479452024e-01
5.547945205479452024e-01
5.513698630136986134e-01
5.513698630136986134e-01
5.479452054794520244e-01
5.445205479452054353e-01
5.513698630136986134e-01
5.445205479452054353e-01
5.410958904109589573e-01
5.479452054794520244e-01
5.582191780821917915e-01
5.684931506849315586e-01
5.684931506849315586e-01
5.684931506849315586e-01
5.650684931506849695e-01
5.719178082191780366e-01
5.821917808219178037e-01
5.890410958904109817e-01
5.924657534246575707e-01
5.924657534246575707e-01
5.890410958904109817e-01
5.890410958904109817e-01
5.890410958904109817e-01
5.958904109589041598e-01
5.958904109589041598e-01
5.890410958904109817e-01
5.856164383561643927e-01
5.821917808219178037e-01
5.753424657534246256e-01
5.753424657534246256e-01
5.787671232876712146e-01
5.753424657534246256e-01
5.684931506849315586e-01
5.753424657534246256e-01
5.787671232876712146e-01
5.856164383561643927e-01
5.821917808219178037e-01
5.787671232876712146e-01
5.719178082191780366e-01
5.650684931506849695e-01
5.547945205479452024e-01
5.547945205479452024e-01
5.684931506849315586e-01
5.753424657534246256e-01
5.753424657534246256e-01
5.719178082191780366e-01
5.684931506849315586e-01
5.684931506849315586e-01
5.753424657534246256e-01
5.650684931506849695e-01
5.616438356164383805e-01
5.582191780821917915e-01
5.616438356164383805e-01
5.616438356164383805e-01
5.650684931506849695e-01
5.684931506849315586e-01
5.719178082191780366e-01
5.753424657534246256e-01
5.753424657534246256e-01
5.821917808219178037e-01
5.821917808219178037e-01
5.821917808219178037e-01
5.821917808219178037e-01
5.787671232876712146e-01
5.821917808219178037e-01
5.787671232876712146e-01
5.787671232876712146e-01
5.753424657534246256e-01
5.753424657534246256e-01
5.684931506849315586e-01
5.684931506849315586e-01
5.719178082191780366e-01
5.719178082191780366e-01
5.719178082191780366e-01
5.719178082191780366e-01
5.719178082191780366e-01
5.719178082191780366e-01
5.719178082191780366e-01
5.719178082191780366e-01
5.753424657534246256e-01
5.753424657534246256e-01
5.821917808219178037e-01
5.890410958904109817e-01
6.061643835616438158e-01
6.232876712328767610e-01
6.267123287671232390e-01
6.164383561643835829e-01
6.164383561643835829e-01
6.164383561643835829e-01
6.232876712328767610e-01
6.130136986301369939e-01
5.993150684931506378e-01
5.856164383561643927e-01
5.719178082191780366e-01
5.650684931506849695e-01
5.684931506849315586e-01
5.684931506849315586e-01
5.650684931506849695e-01
5.650684931506849695e-01
5.753424657534246256e-01
5.856164383561643927e-01
5.890410958904109817e-01
5.856164383561643927e-01
5.650684931506849695e-01
5.582191780821917915e-01
5.582191780821917915e-01
6.027397260273972268e-01
6.301369863013698280e-01
7.054794520547945647e-01
7.945205479452054353e-01
8.904109589041095951e-01
9.623287671232876317e-01
9.075342465753424293e-01
7.910958904109589573e-01
7.054794520547945647e-01
6.095890410958904049e-01
5.787671232876712146e-01
5.684931506849315586e-01
5.821917808219178037e-01
5.924657534246575707e-01
6.027397260273972268e-01
6.061643835616438158e-01
5.993150684931506378e-01
5.890410958904109817e-01
5.787671232876712146e-01
5.856164383561643927e-01
5.890410958904109817e-01
5.890410958904109817e-01
5.890410958904109817e-01
5.856164383561643927e-01
5.821917808219178037e-01
5.821917808219178037e-01
5.821917808219178037e-01
5.753424657534246256e-01
5.684931506849315586e-01
5.650684931506849695e-01
5.753424657534246256e-01
5.753424657534246256e-01
5.650684931506849695e-01
5.616438356164383805e-01
5.719178082191780366e-01
5.787671232876712146e-01
5.821917808219178037e-01
5.719178082191780366e-01
5.719178082191780366e-01
5.582191780821917915e-01
5.547945205479452024e-01
5.616438356164383805e-01
5.684931506849315586e-01
5.719178082191780366e-01
5.684931506849315586e-01
5.616438356164383805e-01
5.650684931506849695e-01
5.753424657534246256e-01
5.821917808219178037e-01
5.856164383561643927e-01
5.856164383561643927e-01
5.890410958904109817e-01
5.924657534246575707e-01
5.993150684931506378e-01
5.993150684931506378e-01
6.027397260273972268e-01
6.061643835616438158e-01
6.130136986301369939e-01
6.130136986301369939e-01
6.095890410958904049e-01
6.130136986301369939e-01
6.164383561643835829e-01
6.267123287671232390e-01
6.335616438356164171e-01
6.369863013698630061e-01
6.438356164383561842e-01
6.404109589041095951e-01
6.301369863013698280e-01
6.198630136986301720e-01
6.130136986301369939e-01
5.958904109589041598e-01
5.924657534246575707e-01
5.890410958904109817e-01
5.821917808219178037e-01
5.650684931506849695e-01
5.650684931506849695e-01
5.479452054794520244e-01
5.445205479452054353e-01
5.410958904109589573e-01
5.376712328767123683e-01
5.342465753424657793e-01
5.376712328767123683e-01
5.273972602739726012e-01
5.273972602739726012e-01
5.171232876712328341e-01
5.205479452054794232e-01
5.171232876712328341e-01
5.171232876712328341e-01
5.136986301369863561e-01
5.102739726027397671e-01
5.000000000000000000e-01
4.965753424657534110e-01
5.068493150684931781e-01
5.136986301369863561e-01
5.239726027397260122e-01
5.308219178082191902e-01
5.376712328767123683e-01
5.342465753424657793e-01
5.342465753424657793e-01
5.445205479452054353e-01
5.376712328767123683e-01
5.342465753424657793e-01
5.171232876712328341e-01
5.136986301369863561e-01
5.308219178082191902e-01
5.410958904109589573e-01
5.410958904109589573e-01
5.513698630136986134e-01
5.376712328767123683e-01
5.376712328767123683e-01
5.171232876712328341e-01
5.273972602739726012e-01
5.239726027397260122e-01
5.239726027397260122e-01
5.171232876712328341e-01
5.136986301369863561e-01
5.171232876712328341e-01
5.273972602739726012e-01
5.308219178082191902e-01
5.376712328767123683e-01
5.479452054794520244e-01
5.582191780821917915e-01
5.445205479452054353e-01
5.445205479452054353e-01
5.273972602739726012e-01
5.239726027397260122e-01
5.136986301369863561e-01
5.136986301369863561e-01
5.136986301369863561e-01
5.171232876712328341e-01
5.171232876712328341e-01
5.171232876712328341e-01
5.205479452054794232e-01
5.205479452054794232e-01
5.273972602739726012e-01
5.273972602739726012e-01
5.291095890410958402e-01
5.308219178082191902e-01
5.308219178082191902e-01
5.308219178082191902e-01
5.308219178082191902e-01
5.342465753424657793e-01
5.342465753424657793e-01
5.342465753424657793e-01
5.342465753424657793e-01
5.376712328767123683e-01
5.445205479452054353e-01
5.410958904109589573e-01
5.376712328767123683e-01
5.308219178082191902e-01
5.342465753424657793e-01
5.376712328767123683e-01
5.445205479452054353e-01
5.547945205479452024e-01
5.582191780821917915e-01
5.445205479452054353e-01
5.445205479452054353e-01
5.445205479452054353e-01
5.582191780821917915e-01
5.616438356164383805e-01
5.616438356164383805e-01
5.616438356164383805e-01
5.616438356164383805e-01
5.616438356164383805e-01
5.582191780821917915e-01
5.547945205479452024e-01
5.445205479452054353e-01
5.342465753424657793e-01
5.239726027397260122e-01
5.171232876712328341e-01
5.068493150684931781e-01
5.034246575342465890e-01
5.000000000000000000e-01
5.000000000000000000e-01
5.102739726027397671e-01
5.205479452054794232e-01
5.239726027397260122e-01
5.239726027397260122e-01
5.273972602739726012e-01
5.376712328767123683e-01
5.582191780821917915e-01
5.924657534246575707e-01
6.506849315068493622e-01
7.191780821917808098e-01
7.979452054794520244e-01
8.424657534246575707e-01
7.910958904109589573e-01
6.986301369863013866e-01
6.232876712328767610e-01
5.616438356164383805e-01
5.376712328767123683e-01
5.376712328767123683e-01
5.376712328767123683e-01
5.342465753424657793e-01
5.342465753424657793e-01
5.273972602739726012e-01
5.308219178082191902e-01
5.342465753424657793e-01
5.376712328767123683e-01
5.445205479452054353e-01
5.547945205479452024e-01
5.582191780821917915e-01
5.547945205479452024e-01
5.513698630136986134e-01
5.376712328767123683e-01
5.308219178082191902e-01
5.308219178082191902e-01
5.410958904109589573e-01
5.513698630136986134e-01
5.513698630136986134e-01
5.513698630136986134e-01
5.958904109589041598e-01
5.958904109589041598e-01
5.958904109589041598e-01
5.958904109589041598e-01
6.027397260273972268e-01
6.061643835616438158e-01
8.321917808219178037e-01
8.424657534246575707e-01
8.595890410958904049e-01
8.732876712328767610e-01
8.904109589041095951e-01
9.075342465753424293e-01
9.280821917808219634e-01
9.383561643835616195e-01
9.452054794520547976e-01
9.383561643835616195e-01
9.280821917808219634e-01
9.075342465753424293e-01
8.938356164383561842e-01
8.698630136986301720e-01
8.527397260273972268e-01
8.287671232876712146e-01
8.253424657534246256e-01
7.226027397260273988e-01
6.164383561643835829e-01
6.267123287671232390e-01
6.301369863013698280e-01
8.321917808219178037e-01
6.712328767123287854e-01
7.500000000000000000e-01
8.287671232876712146e-01
8.287671232876712146e-01
8.801369863013698280e-01
8.835616438356164171e-01
8.835616438356164171e-01
8.698630136986301720e-01
6.780821917808219634e-01
6.712328767123287854e-01
6.609589041095890183e-01
6.335616438356164171e-01
6.164383561643835829e-01
5.958904109589041598e-01
5.856164383561643927e-01
5.787671232876712146e-01
5.582191780821917915e-01
5.582191780821917915e-01
5.445205479452054353e-01
5.513698630136986134e-01
5.547945205479452024e-01
5.582191780821917915e-01
5.582191780821917915e-01
5.479452054794520244e-01
5.445205479452054353e-01
5.445205479452054353e-01
5.445205479452054353e-01
5.445205479452054353e-01
5.445205479452054353e-01
5.445205479452054353e-01
5.479452054794520244e-01
5.479452054794520244e-01
5.479452054794520244e-01
5.479452054794520244e-01
5.479452054794520244e-01
5.479452054794520244e-01
5.479452054794520244e-01
5.445205479452054353e-01
5.410958904109589573e-01
5.410958904109589573e-01
5.445205479452054353e-01
5.445205479452054353e-01
5.479452054794520244e-01
5.479452054794520244e-01
5.479452054794520244e-01
5.513698630136986134e-01
5.547945205479452024e-01
5.547945205479452024e-01
5.479452054794520244e-01
5.479452054794520244e-01
5.410958904109589573e-01
5.445205479452054353e-01
5.479452054794520244e-01
5.513698630136986134e-01
5.530821917808219634e-01
5.547945205479452024e-01
5.547945205479452024e-01
5.547945205479452024e-01
5.547945205479452024e-01
5.547945205479452024e-01
5.445205479452054353e-01
5.410958904109589573e-01
5.410958904109589573e-01
5.410958904109589573e-01
5.445205479452054353e-01
5.445205479452054353e-01
5.479452054794520244e-01
5.479452054794520244e-01
5.479452054794520244e-01
5.479452054794520244e-01
5.513698630136986134e-01
5.513698630136986134e-01
5.513698630136986134e-01
5.513698630136986134e-01
5.513698630136986134e-01
5.513698630136986134e-01
5.513698630136986134e-01
5.513698630136986134e-01
5.513698630136986134e-01
5.513698630136986134e-01
5.513698630136986134e-01
5.513698630136986134e-01
5.445205479452054353e-01
5.445205479452054353e-01
5.445205479452054353e-01
5.445205479452054353e-01
5.445205479452054353e-01
5.445205479452054353e-01
5.445205479452054353e-01
5.445205479452054353e-01
5.445205479452054353e-01
5.445205479452054353e-01
5.445205479452054353e-01
5.445205479452054353e-01
5.445205479452054353e-01
5.445205479452054353e-01
5.445205479452054353e-01
5.445205479452054353e-01
5.410958904109589573e-01
5.376712328767123683e-01
5.342465753424657793e-01
5.342465753424657793e-01
5.376712328767123683e-01
5.376712328767123683e-01
5.445205479452054353e-01
5.547945205479452024e-01
5.684931506849315586e-01
5.753424657534246256e-01
5.719178082191780366e-01
5.616438356164383805e-01
5.547945205479452024e-01
5.547945205479452024e-01
5.582191780821917915e-01
5.582191780821917915e-01
5.582191780821917915e-01
5.582191780821917915e-01
5.616438356164383805e-01
5.616438356164383805e-01
5.616438356164383805e-01
5.616438356164383805e-01
5.410958904109589573e-01
5.376712328767123683e-01
5.273972602739726012e-01
5.342465753424657793e-01
5.239726027397260122e-01
5.719178082191780366e-01
6.575342465753424293e-01
7.534246575342465890e-01
8.390410958904109817e-01
9.315068493150684414e-01
9.075342465753424293e-01
8.013698630136986134e-01
7.431506849315068219e-01
6.027397260273972268e-01
5.890410958904109817e-01
5.582191780821917915e-01
5.582191780821917915e-01
5.582191780821917915e-01
5.582191780821917915e-01
5.582191780821917915e-01
5.582191780821917915e-01
5.582191780821917915e-01
5.582191780821917915e-01
5.582191780821917915e-01
5.582191780821917915e-01
5.582191780821917915e-01
5.582191780821917915e-01
5.582191780821917915e-01
5.582191780821917915e-01
5.582191780821917915e-01
5.547945205479452024e-01
5.547945205479452024e-01
5.582191780821917915e-01
5.582191780821917915e-01
5.582191780821917915e-01
5.582191780821917915e-01
5.616438356164383805e-01
5.616438356164383805e-01
5.616438356164383805e-01
5.616438356164383805e-01
5.650684931506849695e-01
5.650684931506849695e-01
5.616438356164383805e-01
5.582191780821917915e-01
5.547945205479452024e-01
5.616438356164383805e-01
5.684931506849315586e-01
5.719178082191780366e-01
5.719178082191780366e-01
5.719178082191780366e-01
5.753424657534246256e-01
5.753424657534246256e-01
5.804794520547945647e-01
5.856164383561643927e-01
5.856164383561643927e-01
5.890410958904109817e-01
5.924657534246575707e-01
5.993150684931506378e-01
6.061643835616438158e-01
6.130136986301369939e-01
6.232876712328767610e-01
6.232876712328767610e-01
6.301369863013698280e-01
6.301369863013698280e-01
6.369863013698630061e-01
6.506849315068493622e-01
6.643835616438356073e-01
6.609589041095890183e-01
6.575342465753424293e-01
6.472602739726027732e-01
6.335616438356164171e-01
6.267123287671232390e-01
6.164383561643835829e-01
6.061643835616438158e-01
5.993150684931506378e-01
5.890410958904109817e-01
5.753424657534246256e-01
5.719178082191780366e-01
5.650684931506849695e-01
5.650684931506849695e-01
5.650684931506849695e-01
5.650684931506849695e-01
5.650684931506849695e-01
5.616438356164383805e-01
5.616438356164383805e-01
5.616438356164383805e-01
5.616438356164383805e-01
5.616438356164383805e-01
5.616438356164383805e-01
5.582191780821917915e-01
5.582191780821917915e-01
5.582191780821917915e-01
5.582191780821917915e-01
5.616438356164383805e-01
5.616438356164383805e-01
5.547945205479452024e-01
5.513698630136986134e-01
5.479452054794520244e-01
5.513698630136986134e-01
5.547945205479452024e-01
5.582191780821917915e-01
5.582191780821917915e-01
5.582191780821917915e-01
5.582191780821917915e-01
5.582191780821917915e-01
5.582191780821917915e-01
5.582191780821917915e-01
5.582191780821917915e-01
5.582191780821917915e-01
5.616438356164383805e-01
5.616438356164383805e-01
5.616438356164383805e-01
5.616438356164383805e-01
5.616438356164383805e-01
5.616438356164383805e-01
5.582191780821917915e-01
5.547945205479452024e-01
5.547945205479452024e-01
5.582191780821917915e-01
5.616438356164383805e-01
5.616438356164383805e-01
5.650684931506849695e-01
5.684931506849315586e-01
5.684931506849315586e-01
5.753424657534246256e-01
5.753424657534246256e-01
5.753424657534246256e-01
5.787671232876712146e-01
5.821917808219178037e-01
5.821917808219178037e-01
5.821917808219178037e-01
5.856164383561643927e-01
5.890410958904109817e-01
5.890410958904109817e-01
5.924657534246575707e-01
5.924657534246575707e-01
5.958904109589041598e-01
5.958904109589041598e-01
5.958904109589041598e-01
5.958904109589041598e-01
5.993150684931506378e-01
5.993150684931506378e-01
6.027397260273972268e-01
6.027397260273972268e-01
6.027397260273972268e-01
5.993150684931506378e-01
5.993150684931506378e-01
5.993150684931506378e-01
5.993150684931506378e-01
5.958904109589041598e-01
5.958904109589041598e-01
5.958904109589041598e-01
5.924657534246575707e-01
5.924657534246575707e-01
5.924657534246575707e-01
5.958904109589041598e-01
6.027397260273972268e-01
6.027397260273972268e-01
5.993150684931506378e-01
5.993150684931506378e-01
5.958904109589041598e-01
5.958904109589041598e-01
5.924657534246575707e-01
5.924657534246575707e-01
5.890410958904109817e-01
5.890410958904109817e-01
5.993150684931506378e-01
6.198630136986301720e-01
6.301369863013698280e-01
6.438356164383561842e-01
6.352739726027397671e-01
6.267123287671232390e-01
6.232876712328767610e-01
6.232876712328767610e-01
6.198630136986301720e-01
6.198630136986301720e-01
6.164383561643835829e-01
6.164383561643835829e-01
6.164383561643835829e-01
6.130136986301369939e-01
6.095890410958904049e-01
6.095890410958904049e-01
6.027397260273972268e-01
6.027397260273972268e-01
5.993150684931506378e-01
5.958904109589041598e-01
5.890410958904109817e-01
5.890410958904109817e-01
6.267123287671232390e-01
7.123287671232876317e-01
8.116438356164383805e-01
9.006849315068493622e-01
1.000000000000000000e+00
9.726027397260273988e-01
8.630136986301369939e-01
7.910958904109589573e-01
7.054794520547945647e-01
6.404109589041095951e-01
6.232876712328767610e-01
6.164383561643835829e-01
6.164383561643835829e-01
6.164383561643835829e-01
6.164383561643835829e-01
6.164383561643835829e-01
6.164383561643835829e-01
6.130136986301369939e-01
6.130136986301369939e-01
6.095890410958904049e-01
6.095890410958904049e-01
6.095890410958904049e-01
6.061643835616438158e-01
6.027397260273972268e-01
6.027397260273972268e-01
6.027397260273972268e-01
5.993150684931506378e-01
5.993150684931506378e-01
6.027397260273972268e-01
6.061643835616438158e-01
6.095890410958904049e-01
6.095890410958904049e-01
6.095890410958904049e-01
6.027397260273972268e-01
6.027397260273972268e-01
5.993150684931506378e-01
5.958904109589041598e-01
5.924657534246575707e-01
5.958904109589041598e-01
6.027397260273972268e-01
6.027397260273972268e-01
6.130136986301369939e-01
6.130136986301369939e-01
6.267123287671232390e-01
6.267123287671232390e-01
6.267123287671232390e-01
6.267123287671232390e-01
6.267123287671232390e-01
6.267123287671232390e-01
6.267123287671232390e-01
6.301369863013698280e-01
6.369863013698630061e-01
6.369863013698630061e-01
6.404109589041095951e-01
6.609589041095890183e-01
6.643835616438356073e-01
6.746575342465753744e-01
6.780821917808219634e-01
6.815068493150684414e-01
6.883561643835616195e-01
6.917808219178082085e-01
6.986301369863013866e-01
7.020547945205479756e-01
7.020547945205479756e-01
6.917808219178082085e-01
6.815068493150684414e-01
6.712328767123287854e-01
6.575342465753424293e-01
6.472602739726027732e-01
6.369863013698630061e-01
6.301369863013698280e-01
6.232876712328767610e-01
6.232876712328767610e-01
6.164383561643835829e-01
6.164383561643835829e-01
6.164383561643835829e-01
6.130136986301369939e-01
6.130136986301369939e-01
6.130136986301369939e-01
6.130136986301369939e-01
6.095890410958904049e-01
6.095890410958904049e-01
6.095890410958904049e-01
6.095890410958904049e-01
6.095890410958904049e-01
6.095890410958904049e-01
6.095890410958904049e-01
6.130136986301369939e-01
6.164383561643835829e-01
6.164383561643835829e-01
6.164383561643835829e-01
6.130136986301369939e-01
6.130136986301369939e-01
6.095890410958904049e-01
6.095890410958904049e-01
6.095890410958904049e-01
6.164383561643835829e-01
6.232876712328767610e-01
6.232876712328767610e-01
6.232876712328767610e-01
6.181506849315068219e-01
6.130136986301369939e-01
6.130136986301369939e-01
6.130136986301369939e-01
6.130136986301369939e-01
6.130136986301369939e-01
6.130136986301369939e-01
6.130136986301369939e-01
6.164383561643835829e-01
6.198630136986301720e-01
6.232876712328767610e-01
6.198630136986301720e-01
6.198630136986301720e-01
6.198630136986301720e-01
6.198630136986301720e-01
6.198630136986301720e-01
6.198630136986301720e-01
6.198630136986301720e-01
6.198630136986301720e-01
6.198630136986301720e-01
6.198630136986301720e-01
6.198630136986301720e-01
6.164383561643835829e-01
6.164383561643835829e-01
6.164383561643835829e-01
6.130136986301369939e-01
6.095890410958904049e-01
6.095890410958904049e-01
6.061643835616438158e-01
6.027397260273972268e-01
6.027397260273972268e-01
6.095890410958904049e-01
6.130136986301369939e-01
6.130136986301369939e-01
6.130136986301369939e-01
6.095890410958904049e-01
6.095890410958904049e-01
6.095890410958904049e-01
6.061643835616438158e-01
6.061643835616438158e-01
5.993150684931506378e-01
6.027397260273972268e-01
6.095890410958904049e-01
6.164383561643835829e-01
6.232876712328767610e-01
6.198630136986301720e-01
6.198630136986301720e-01
6.198630136986301720e-01
6.164383561643835829e-01
6.164383561643835829e-01
6.164383561643835829e-01
6.130136986301369939e-01
6.130136986301369939e-01
6.130136986301369939e-01
6.095890410958904049e-01
6.061643835616438158e-01
5.958904109589041598e-01
5.958904109589041598e-01
5.958904109589041598e-01
5.958904109589041598e-01
5.958904109589041598e-01
6.095890410958904049e-01
8.321917808219178037e-01
8.356164383561643927e-01
8.595890410958904049e-01
8.767123287671232390e-01
8.938356164383561842e-01
9.143835616438356073e-01
9.280821917808219634e-01
9.417808219178082085e-01
9.486301369863013866e-01
9.417808219178082085e-01
9.280821917808219634e-01
9.075342465753424293e-01
8.938356164383561842e-01
8.835616438356164171e-01
8.630136986301369939e-01
8.458904109589041598e-01
8.321917808219178037e-01
6.438356164383561842e-01
6.061643835616438158e-01
5.753424657534246256e-01
5.308219178082191902e-01
4.589041095890410982e-01
3.356164383561643927e-01
2.431506849315068497e-01
1.780821917808219079e-01
3.390410958904109817e-01
4.863013698630136994e-01
6.267123287671232390e-01
7.739726027397260122e-01
8.458904109589041598e-01
8.595890410958904049e-01
8.767123287671232390e-01
8.287671232876712146e-01
6.404109589041095951e-01
6.369863013698630061e-01
6.369863013698630061e-01
6.335616438356164171e-01
6.369863013698630061e-01
6.369863013698630061e-01
6.335616438356164171e-01
6.301369863013698280e-01
6.267123287671232390e-01
6.232876712328767610e-01
6.232876712328767610e-01
6.198630136986301720e-01
6.198630136986301720e-01
6.164383561643835829e-01
6.164383561643835829e-01
6.130136986301369939e-01
6.130136986301369939e-01
6.130136986301369939e-01
6.095890410958904049e-01
6.095890410958904049e-01
6.095890410958904049e-01
6.061643835616438158e-01
6.061643835616438158e-01
6.027397260273972268e-01
5.993150684931506378e-01
5.993150684931506378e-01
5.993150684931506378e-01
5.958904109589041598e-01
5.958904109589041598e-01
5.924657534246575707e-01
5.924657534246575707e-01
5.890410958904109817e-01
5.856164383561643927e-01
5.821917808219178037e-01
5.753424657534246256e-01
5.684931506849315586e-01
5.650684931506849695e-01
5.616438356164383805e-01
5.547945205479452024e-01
5.513698630136986134e-01
5.410958904109589573e-01
5.376712328767123683e-01
5.342465753424657793e-01
5.342465753424657793e-01
5.308219178082191902e-01
5.273972602739726012e-01
5.239726027397260122e-01
5.205479452054794232e-01
5.205479452054794232e-01
5.205479452054794232e-01
5.205479452054794232e-01
5.205479452054794232e-01
5.239726027397260122e-01
5.273972602739726012e-01
5.273972602739726012e-01
5.342465753424657793e-01
5.376712328767123683e-01
5.445205479452054353e-01
5.547945205479452024e-01
5.616438356164383805e-01
5.684931506849315586e-01
5.684931506849315586e-01
5.753424657534246256e-01
5.787671232876712146e-01
5.821917808219178037e-01
5.890410958904109817e-01
5.890410958904109817e-01
5.924657534246575707e-01
5.924657534246575707e-01
5.958904109589041598e-01
5.958904109589041598e-01
5.958904109589041598e-01
5.958904109589041598e-01
5.993150684931506378e-01
5.993150684931506378e-01
6.027397260273972268e-01
6.027397260273972268e-01
6.027397260273972268e-01
5.993150684931506378e-01
5.993150684931506378e-01
5.993150684931506378e-01
5.993150684931506378e-01
5.958904109589041598e-01
5.958904109589041598e-01
5.958904109589041598e-01
5.958904109589041598e-01
5.958904109589041598e-01
5.958904109589041598e-01
5.958904109589041598e-01
5.958904109589041598e-01
5.993150684931506378e-01
5.993150684931506378e-01
5.993150684931506378e-01
5.958904109589041598e-01
5.958904109589041598e-01
5.993150684931506378e-01
5.993150684931506378e-01
5.993150684931506378e-01
5.993150684931506378e-01
5.993150684931506378e-01
6.027397260273972268e-01
6.027397260273972268e-01
6.044520547945205768e-01
6.061643835616438158e-01
6.061643835616438158e-01
6.061643835616438158e-01
6.061643835616438158e-01
6.095890410958904049e-01
6.095890410958904049e-01
6.095890410958904049e-01
6.095890410958904049e-01
6.095890410958904049e-01
6.130136986301369939e-01
6.130136986301369939e-01
6.130136986301369939e-01
6.130136986301369939e-01
6.130136986301369939e-01
6.130136986301369939e-01
6.130136986301369939e-01
6.130136986301369939e-01
6.130136986301369939e-01
6.130136986301369939e-01
6.130136986301369939e-01
6.164383561643835829e-01
6.198630136986301720e-01
6.267123287671232390e-01
6.267123287671232390e-01
6.267123287671232390e-01
6.267123287671232390e-01
6.267123287671232390e-01
6.301369863013698280e-01
6.301369863013698280e-01
6.301369863013698280e-01
6.301369863013698280e-01
6.301369863013698280e-01
6.301369863013698280e-01
6.335616438356164171e-01
6.335616438356164171e-01
6.335616438356164171e-01
6.335616438356164171e-01
6.369863013698630061e-01
6.369863013698630061e-01
6.404109589041095951e-01
6.267123287671232390e-01
6.232876712328767610e-01
6.130136986301369939e-01
6.061643835616438158e-01
5.958904109589041598e-01
5.958904109589041598e-01
5.993150684931506378e-01
6.027397260273972268e-01
6.061643835616438158e-01
6.130136986301369939e-01
6.198630136986301720e-01
6.232876712328767610e-01
6.232876712328767610e-01
6.267123287671232390e-01
6.301369863013698280e-01
6.335616438356164171e-01
6.335616438356164171e-01
6.335616438356164171e-01
6.369863013698630061e-01
6.369863013698630061e-01
6.369863013698630061e-01
6.335616438356164171e-01
6.301369863013698280e-01
6.301369863013698280e-01
6.301369863013698280e-01
6.198630136986301720e-01
5.924657534246575707e-01
5.513698630136986134e-01
4.931506849315068219e-01
4.006849315068493067e-01
2.876712328767123128e-01
1.986301369863013588e-01
1.643835616438356073e-01
3.595890410958904049e-01
5.102739726027397671e-01
6.575342465753424293e-01
7.500000000000000000e-01
7.191780821917808098e-01
6.780821917808219634e-01
6.643835616438356073e-01
6.438356164383561842e-01
6.369863013698630061e-01
6.369863013698630061e-01
6.369863013698630061e-01
6.369863013698630061e-01
6.369863013698630061e-01
6.369863013698630061e-01
6.369863013698630061e-01
6.369863013698630061e-01
6.369863013698630061e-01
6.335616438356164171e-01
6.335616438356164171e-01
6.335616438356164171e-01
6.301369863013698280e-01
6.301369863013698280e-01
6.301369863013698280e-01
6.301369863013698280e-01
6.267123287671232390e-01
6.267123287671232390e-01
6.267123287671232390e-01
6.267123287671232390e-01
6.232876712328767610e-01
6.232876712328767610e-01
6.267123287671232390e-01
6.232876712328767610e-01
6.232876712328767610e-01
6.198630136986301720e-01
6.164383561643835829e-01
6.130136986301369939e-01
6.095890410958904049e-01
6.095890410958904049e-01
6.061643835616438158e-01
6.027397260273972268e-01
6.027397260273972268e-01
5.993150684931506378e-01
5.993150684931506378e-01
5.993150684931506378e-01
5.958904109589041598e-01
5.924657534246575707e-01
5.890410958904109817e-01
5.890410958904109817e-01
5.890410958904109817e-01
5.856164383561643927e-01
5.821917808219178037e-01
5.821917808219178037e-01
5.821917808219178037e-01
5.787671232876712146e-01
5.753424657534246256e-01
5.753424657534246256e-01
5.753424657534246256e-01
5.719178082191780366e-01
5.719178082191780366e-01
5.753424657534246256e-01
5.753424657534246256e-01
5.821917808219178037e-01
5.890410958904109817e-01
5.890410958904109817e-01
5.993150684931506378e-01
6.061643835616438158e-01
6.164383561643835829e-01
6.198630136986301720e-01
6.232876712328767610e-01
6.301369863013698280e-01
6.335616438356164171e-01
6.404109589041095951e-01
6.404109589041095951e-01
6.404109589041095951e-01
6.404109589041095951e-01
6.426940639269405064e-01
6.449771689497718619e-01
6.472602739726027732e-01
6.506849315068493622e-01
6.506849315068493622e-01
6.506849315068493622e-01
6.506849315068493622e-01
6.506849315068493622e-01
6.541095890410958402e-01
6.541095890410958402e-01
6.541095890410958402e-01
6.506849315068493622e-01
6.506849315068493622e-01
6.506849315068493622e-01
6.506849315068493622e-01
6.506849315068493622e-01
6.455479452054794232e-01
6.404109589041095951e-01
6.404109589041095951e-01
6.404109589041095951e-01
6.404109589041095951e-01
6.404109589041095951e-01
6.404109589041095951e-01
6.404109589041095951e-01
6.404109589041095951e-01
6.404109589041095951e-01
6.404109589041095951e-01
6.369863013698630061e-01
6.369863013698630061e-01
6.369863013698630061e-01
6.369863013698630061e-01
6.369863013698630061e-01
6.404109589041095951e-01
6.404109589041095951e-01
6.404109589041095951e-01
6.404109589041095951e-01
6.404109589041095951e-01
6.404109589041095951e-01
6.369863013698630061e-01
6.438356164383561842e-01
6.506849315068493622e-01
6.506849315068493622e-01
6.455479452054794232e-01
6.404109589041095951e-01
6.404109589041095951e-01
6.404109589041095951e-01
6.404109589041095951e-01
6.404109589041095951e-01
6.369863013698630061e-01
6.335616438356164171e-01
6.369863013698630061e-01
6.369863013698630061e-01
6.404109589041095951e-01
6.404109589041095951e-01
6.404109589041095951e-01
6.404109589041095951e-01
6.404109589041095951e-01
6.404109589041095951e-01
6.404109589041095951e-01
6.404109589041095951e-01
6.404109589041095951e-01
6.404109589041095951e-01
6.404109589041095951e-01
6.404109589041095951e-01
6.404109589041095951e-01
6.404109589041095951e-01
6.404109589041095951e-01
6.404109589041095951e-01
6.404109589041095951e-01
6.404109589041095951e-01
6.404109589041095951e-01
6.369863013698630061e-01
6.369863013698630061e-01
6.369863013698630061e-01
6.369863013698630061e-01
6.335616438356164171e-01
6.232876712328767610e-01
6.130136986301369939e-01
6.095890410958904049e-01
6.027397260273972268e-01
5.958904109589041598e-01
5.958904109589041598e-01
5.958904109589041598e-01
5.958904109589041598e-01
6.027397260273972268e-01
6.027397260273972268e-01
6.027397260273972268e-01
6.061643835616438158e-01
6.095890410958904049e-01
6.130136986301369939e-01
6.164383561643835829e-01
6.232876712328767610e-01
6.301369863013698280e-01
6.335616438356164171e-01
6.369863013698630061e-01
6.335616438356164171e-01
6.335616438356164171e-01
6.335616438356164171e-01
6.301369863013698280e-01
6.301369863013698280e-01
6.267123287671232390e-01
6.267123287671232390e-01
6.061643835616438158e-01
5.719178082191780366e-01
5.239726027397260122e-01
4.691780821917808098e-01
3.595890410958904049e-01
2.500000000000000000e-01
1.575342465753424570e-01
2.054794520547945091e-01
3.835616438356164171e-01
5.239726027397260122e-01
6.746575342465753744e-01
