3.935483870967741993e-01
3.935483870967741993e-01
3.916631755341433152e-01
3.897779639715123756e-01
3.878927524088814915e-01
3.860075408462504964e-01
3.841223292836195569e-01
3.822371177209886728e-01
3.803519061583577887e-01
3.784666945957268491e-01
3.765814830330959651e-01
3.746962714704650255e-01
3.728110599078341414e-01
3.709258483452031463e-01
3.690406367825722622e-01
3.671554252199413226e-01
3.652702136573104386e-01
3.633850020946794990e-01
3.614997905320486149e-01
3.596145789694177308e-01
3.577293674067867912e-01
3.558441558441557961e-01
3.539589442815249121e-01
3.520737327188939725e-01
3.501885211562630884e-01
3.483033095936322043e-01
3.464180980310012647e-01
3.445328864683703807e-01
3.426476749057393856e-01
3.407624633431084460e-01
3.388772517804775619e-01
3.369920402178466778e-01
3.351068286552157383e-01
3.332216170925848542e-01
3.313364055299539701e-01
3.294511939673230305e-01
3.275659824046921464e-01
3.256807708420611513e-01
3.237955592794302118e-01
3.219103477167993277e-01
3.200251361541684436e-01
3.181399245915375040e-01
3.162547130289066200e-01
3.143695014662756804e-01
3.124842899036446853e-01
3.105990783410138012e-01
3.087138667783829171e-01
3.068286552157519775e-01
3.049434436531210935e-01
3.030582320904901539e-01
3.011730205278592698e-01
2.992878089652283857e-01
2.974025974025973906e-01
2.955173858399664510e-01
2.936321742773355670e-01
2.917469627147046274e-01
2.898617511520737433e-01
2.879765395894428592e-01
2.860913280268119196e-01
2.842061164641809246e-01
2.823209049015500405e-01
2.804356933389191009e-01
2.785504817762882168e-01
2.766652702136573327e-01
2.747800586510263932e-01
2.728948470883955091e-01
2.710096355257646250e-01
2.691244239631336854e-01
2.672392124005026903e-01
2.653540008378718063e-01
2.634687892752408667e-01
2.615835777126099826e-01
2.596983661499790985e-01
2.578131545873481589e-01
2.559279430247171638e-01
2.540427314620862798e-01
2.521575198994553402e-01
2.502723083368244561e-01
2.483870967741935443e-01
2.016129032258064391e-01
2.016129032258064391e-01
1.967741935483870996e-01
0.000000000000000000e+00
0.000000000000000000e+00
0.000000000000000000e+00
0.000000000000000000e+00
0.000000000000000000e+00
0.000000000000000000e+00
4.516129032258064391e-01
0.000000000000000000e+00
0.000000000000000000e+00
0.000000000000000000e+00
0.000000000000000000e+00
0.000000000000000000e+00
0.000000000000000000e+00
4.516129032258064391e-01
0.000000000000000000e+00
0.000000000000000000e+00
0.000000000000000000e+00
0.000000000000000000e+00
0.000000000000000000e+00
0.000000000000000000e+00
0.000000000000000000e+00
4.516129032258064391e-01
0.000000000000000000e+00
0.000000000000000000e+00
0.000000000000000000e+00
0.000000000000000000e+00
0.000000000000000000e+00
0.000000000000000000e+00
0.000000000000000000e+00
4.516129032258064391e-01
0.000000000000000000e+00
0.000000000000000000e+00
0.000000000000000000e+00
0.000000000000000000e+00
0.000000000000000000e+00
0.000000000000000000e+00
1.951612903225806439e-01
2.016129032258064391e-01
2.048387096774193505e-01
2.387096774193548376e-01
3.870967741935483764e-01
3.887096774193548598e-01
3.887096774193548598e-01
2.580645161290322509e-01
2.580645161290322509e-01
2.564516129032258229e-01
2.548387096774193394e-01
2.548387096774193394e-01
2.548387096774193394e-01
3.887096774193548598e-01
3.870967741935483764e-01
3.854838709677419484e-01
2.403225806451612934e-01
2.370967741935483819e-01
2.354838709677419262e-01
2.387096774193548376e-01
2.403225806451612934e-01
2.387096774193548376e-01
2.322580645161290425e-01
2.290322580645161310e-01
2.338709677419354704e-01
2.419354838709677491e-01
2.532258064516129115e-01
2.580645161290322509e-01
2.629032258064515903e-01
2.645161290322580738e-01
2.661290322580645018e-01
2.661290322580645018e-01
2.645161290322580738e-01
2.645161290322580738e-01
2.661290322580645018e-01
2.677419354838709853e-01
2.661290322580645018e-01
2.612903225806451624e-01
2.661290322580645018e-01
2.661290322580645018e-01
2.612903225806451624e-01
2.403225806451612934e-01
2.145161290322580572e-01
1.935483870967741882e-01
1.629032258064516125e-01
1.645161290322580683e-01
1.822580645161290258e-01
2.161290322580645129e-01
2.403225806451612934e-01
2.580645161290322509e-01
2.661290322580645018e-01
2.677419354838709853e-01
2.661290322580645018e-01
2.645161290322580738e-01
2.645161290322580738e-01
2.741935483870967527e-01
2.741935483870967527e-01
2.725806451612903247e-01
2.629032258064515903e-01
2.709677419354838968e-01
2.741935483870967527e-01
2.709677419354838968e-01
2.661290322580645018e-01
2.629032258064515903e-01
2.661290322580645018e-01
2.677419354838709853e-01
2.709677419354838968e-01
2.693548387096774133e-01
2.693548387096774133e-01
2.677419354838709853e-01
2.677419354838709853e-01
2.677419354838709853e-01
2.661290322580645018e-01
2.661290322580645018e-01
2.645161290322580738e-01
2.645161290322580738e-01
2.629032258064515903e-01
2.612903225806451624e-01
2.645161290322580738e-01
2.661290322580645018e-01
2.629032258064515903e-01
2.580645161290322509e-01
2.596774193548387344e-01
2.596774193548387344e-01
2.564516129032258229e-01
2.516129032258064280e-01
2.500000000000000000e-01
2.532258064516129115e-01
2.483870967741935443e-01
2.483870967741935443e-01
2.483870967741935443e-01
2.451612903225806328e-01
2.354838709677419262e-01
2.290322580645161310e-01
2.306451612903225867e-01
2.322580645161290425e-01
2.274193548387096753e-01
2.209677419354838801e-01
2.161290322580645129e-01
2.112903225806451735e-01
2.112903225806451735e-01
2.129032258064516014e-01
2.161290322580645129e-01
2.193548387096774244e-01
2.225806451612903358e-01
2.290322580645161310e-01
2.322580645161290425e-01
2.354838709677419262e-01
2.370967741935483819e-01
2.403225806451612934e-01
2.451612903225806328e-01
2.516129032258064280e-01
2.532258064516129115e-01
2.596774193548387344e-01
2.661290322580645018e-01
2.661290322580645018e-01
2.661290322580645018e-01
2.645161290322580738e-01
2.661290322580645018e-01
2.677419354838709853e-01
2.677419354838709853e-01
2.661290322580645018e-01
2.645161290322580738e-01
2.645161290322580738e-01
2.677419354838709853e-01
2.693548387096774133e-01
2.709677419354838968e-01
2.693548387096774133e-01
2.693548387096774133e-01
2.677419354838709853e-01
2.677419354838709853e-01
2.677419354838709853e-01
2.661290322580645018e-01
2.661290322580645018e-01
2.661290322580645018e-01
2.645161290322580738e-01
2.629032258064515903e-01
2.580645161290322509e-01
2.564516129032258229e-01
2.612903225806451624e-01
2.661290322580645018e-01
2.677419354838709853e-01
2.645161290322580738e-01
2.677419354838709853e-01
2.725806451612903247e-01
2.677419354838709853e-01
2.645161290322580738e-01
2.629032258064515903e-01
2.645161290322580738e-01
2.661290322580645018e-01
2.677419354838709853e-01
2.661290322580645018e-01
2.612903225806451624e-01
2.661290322580645018e-01
2.661290322580645018e-01
2.709677419354838968e-01
2.693548387096774133e-01
2.677419354838709853e-01
2.677419354838709853e-01
2.693548387096774133e-01
2.725806451612903247e-01
2.741935483870967527e-01
2.741935483870967527e-01
2.758064516129032362e-01
2.758064516129032362e-01
2.758064516129032362e-01
2.741935483870967527e-01
2.741935483870967527e-01
2.741935483870967527e-01
2.725806451612903247e-01
2.725806451612903247e-01
2.725806451612903247e-01
2.725806451612903247e-01
2.709677419354838968e-01
2.709677419354838968e-01
2.693548387096774133e-01
2.677419354838709853e-01
2.677419354838709853e-01
2.677419354838709853e-01
2.661290322580645018e-01
2.645161290322580738e-01
2.645161290322580738e-01
2.645161290322580738e-01
2.629032258064515903e-01
2.645161290322580738e-01
2.677419354838709853e-01
2.709677419354838968e-01
2.741935483870967527e-01
2.725806451612903247e-01
2.709677419354838968e-01
2.677419354838709853e-01
2.677419354838709853e-01
2.677419354838709853e-01
2.645161290322580738e-01
2.629032258064515903e-01
2.629032258064515903e-01
2.629032258064515903e-01
2.483870967741935443e-01
2.435483870967742048e-01
2.419354838709677491e-01
2.483870967741935443e-01
2.532258064516129115e-01
2.532258064516129115e-01
2.532258064516129115e-01
2.500000000000000000e-01
2.500000000000000000e-01
2.532258064516129115e-01
2.564516129032258229e-01
2.612903225806451624e-01
2.677419354838709853e-01
2.709677419354838968e-01
2.758064516129032362e-01
2.758064516129032362e-01
2.774193548387096642e-01
2.774193548387096642e-01
2.758064516129032362e-01
2.758064516129032362e-01
2.741935483870967527e-01
2.741935483870967527e-01
2.774193548387096642e-01
2.806451612903225756e-01
2.806451612903225756e-01
2.822580645161290591e-01
2.612903225806451624e-01
2.370967741935483819e-01
2.096774193548387177e-01
1.854838709677419373e-01
1.758064516129032306e-01
1.935483870967741882e-01
2.080645161290322620e-01
2.354838709677419262e-01
2.580645161290322509e-01
2.629032258064515903e-01
2.725806451612903247e-01
2.709677419354838968e-01
2.709677419354838968e-01
2.693548387096774133e-01
2.693548387096774133e-01
2.725806451612903247e-01
2.741935483870967527e-01
2.758064516129032362e-01
2.741935483870967527e-01
2.709677419354838968e-01
2.709677419354838968e-01
2.725806451612903247e-01
2.725806451612903247e-01
2.741935483870967527e-01
2.741935483870967527e-01
2.758064516129032362e-01
2.741935483870967527e-01
2.741935483870967527e-01
2.758064516129032362e-01
2.758064516129032362e-01
2.741935483870967527e-01
2.693548387096774133e-01
2.677419354838709853e-01
2.693548387096774133e-01
2.693548387096774133e-01
2.725806451612903247e-01
2.725806451612903247e-01
2.741935483870967527e-01
2.741935483870967527e-01
2.709677419354838968e-01
2.709677419354838968e-01
2.677419354838709853e-01
2.677419354838709853e-01
2.645161290322580738e-01
2.629032258064515903e-01
2.612903225806451624e-01
2.596774193548387344e-01
2.548387096774193394e-01
2.548387096774193394e-01
2.564516129032258229e-01
2.564516129032258229e-01
2.500000000000000000e-01
2.451612903225806328e-01
2.354838709677419262e-01
2.290322580645161310e-01
2.274193548387096753e-01
2.241935483870967638e-01
2.225806451612903358e-01
2.193548387096774244e-01
2.177419354838709686e-01
2.145161290322580572e-01
2.145161290322580572e-01
2.193548387096774244e-01
2.225806451612903358e-01
2.241935483870967638e-01
2.274193548387096753e-01
2.354838709677419262e-01
2.403225806451612934e-01
2.435483870967742048e-01
2.483870967741935443e-01
2.500000000000000000e-01
2.564516129032258229e-01
2.564516129032258229e-01
2.596774193548387344e-01
2.645161290322580738e-01
2.677419354838709853e-01
2.661290322580645018e-01
2.645161290322580738e-01
2.645161290322580738e-01
2.645161290322580738e-01
2.645161290322580738e-01
2.661290322580645018e-01
2.645161290322580738e-01
2.661290322580645018e-01
2.661290322580645018e-01
2.693548387096774133e-01
2.693548387096774133e-01
2.677419354838709853e-01
2.677419354838709853e-01
2.661290322580645018e-01
2.661290322580645018e-01
2.661290322580645018e-01
2.661290322580645018e-01
2.661290322580645018e-01
2.661290322580645018e-01
2.677419354838709853e-01
2.709677419354838968e-01
2.725806451612903247e-01
2.725806451612903247e-01
2.709677419354838968e-01
2.677419354838709853e-01
2.677419354838709853e-01
2.677419354838709853e-01
2.693548387096774133e-01
2.693548387096774133e-01
2.661290322580645018e-01
2.612903225806451624e-01
2.661290322580645018e-01
2.677419354838709853e-01
2.709677419354838968e-01
2.629032258064515903e-01
2.629032258064515903e-01
2.645161290322580738e-01
2.661290322580645018e-01
2.661290322580645018e-01
2.661290322580645018e-01
2.677419354838709853e-01
2.677419354838709853e-01
2.693548387096774133e-01
2.677419354838709853e-01
2.661290322580645018e-01
2.661290322580645018e-01
2.645161290322580738e-01
2.645161290322580738e-01
2.629032258064515903e-01
2.629032258064515903e-01
2.629032258064515903e-01
2.612903225806451624e-01
2.612903225806451624e-01
2.612903225806451624e-01
2.612903225806451624e-01
2.612903225806451624e-01
2.596774193548387344e-01
2.580645161290322509e-01
2.580645161290322509e-01
2.580645161290322509e-01
2.612903225806451624e-01
2.629032258064515903e-01
2.661290322580645018e-01
2.645161290322580738e-01
2.645161290322580738e-01
2.629032258064515903e-01
2.645161290322580738e-01
2.645161290322580738e-01
2.645161290322580738e-01
2.645161290322580738e-01
2.645161290322580738e-01
2.645161290322580738e-01
2.661290322580645018e-01
2.661290322580645018e-01
2.661290322580645018e-01
2.661290322580645018e-01
2.645161290322580738e-01
2.645161290322580738e-01
2.612903225806451624e-01
2.580645161290322509e-01
2.548387096774193394e-01
2.483870967741935443e-01
2.403225806451612934e-01
2.387096774193548376e-01
2.370967741935483819e-01
2.387096774193548376e-01
2.403225806451612934e-01
2.419354838709677491e-01
2.419354838709677491e-01
2.435483870967742048e-01
2.435483870967742048e-01
2.451612903225806328e-01
2.483870967741935443e-01
2.532258064516129115e-01
2.596774193548387344e-01
2.612903225806451624e-01
2.629032258064515903e-01
2.661290322580645018e-01
2.677419354838709853e-01
2.661290322580645018e-01
2.677419354838709853e-01
2.677419354838709853e-01
2.677419354838709853e-01
2.677419354838709853e-01
2.677419354838709853e-01
2.677419354838709853e-01
2.612903225806451624e-01
2.403225806451612934e-01
2.209677419354838801e-01
1.935483870967741882e-01
1.661290322580645240e-01
1.629032258064516125e-01
1.790322580645161421e-01
2.048387096774193505e-01
2.274193548387096753e-01
2.387096774193548376e-01
2.532258064516129115e-01
2.612903225806451624e-01
2.661290322580645018e-01
2.677419354838709853e-01
2.629032258064515903e-01
2.596774193548387344e-01
2.612903225806451624e-01
2.677419354838709853e-01
2.661290322580645018e-01
2.661290322580645018e-01
2.661290322580645018e-01
2.661290322580645018e-01
2.661290322580645018e-01
2.661290322580645018e-01
2.677419354838709853e-01
2.693548387096774133e-01
2.661290322580645018e-01
2.612903225806451624e-01
2.532258064516129115e-01
2.467741935483870885e-01
2.500000000000000000e-01
2.580645161290322509e-01
2.612903225806451624e-01
2.596774193548387344e-01
2.564516129032258229e-01
2.532258064516129115e-01
2.483870967741935443e-01
2.483870967741935443e-01
2.532258064516129115e-01
2.548387096774193394e-01
2.548387096774193394e-01
2.532258064516129115e-01
2.532258064516129115e-01
2.532258064516129115e-01
2.532258064516129115e-01
2.532258064516129115e-01
2.532258064516129115e-01
2.532258064516129115e-01
2.483870967741935443e-01
2.403225806451612934e-01
2.370967741935483819e-01
2.322580645161290425e-01
2.258064516129032195e-01
2.225806451612903358e-01
2.290322580645161310e-01
2.209677419354838801e-01
2.209677419354838801e-01
2.064516129032258063e-01
2.032258064516128948e-01
2.048387096774193505e-01
2.016129032258064391e-01
1.983870967741935554e-01
2.016129032258064391e-01
2.080645161290322620e-01
2.112903225806451735e-01
2.161290322580645129e-01
2.209677419354838801e-01
2.241935483870967638e-01
2.290322580645161310e-01
2.338709677419354704e-01
2.370967741935483819e-01
2.435483870967742048e-01
2.532258064516129115e-01
2.564516129032258229e-01
2.516129032258064280e-01
2.483870967741935443e-01
2.516129032258064280e-01
2.580645161290322509e-01
2.580645161290322509e-01
2.516129032258064280e-01
2.467741935483870885e-01
2.435483870967742048e-01
2.467741935483870885e-01
2.483870967741935443e-01
2.516129032258064280e-01
2.483870967741935443e-01
2.483870967741935443e-01
2.483870967741935443e-01
2.483870967741935443e-01
2.483870967741935443e-01
2.483870967741935443e-01
3.403225806451612989e-01
3.967741935483871107e-01
3.887096774193548598e-01
3.806451612903225534e-01
3.790322580645161255e-01
3.870967741935483764e-01
3.790322580645161255e-01
2.854838709677419151e-01
2.854838709677419151e-01
3.322580645161290480e-01
3.838709677419354649e-01
3.983870967741935387e-01
3.983870967741935387e-01
4.032258064516128782e-01
2.596774193548387344e-01
2.580645161290322509e-01
2.612903225806451624e-01
3.580645161290322842e-01
3.612903225806451402e-01
3.661290322580645351e-01
3.758064516129032140e-01
3.870967741935483764e-01
3.935483870967741993e-01
4.016129032258064502e-01
4.048387096774193616e-01
2.677419354838709853e-01
3.419354838709677269e-01
4.096774193548387011e-01
4.000000000000000222e-01
3.935483870967741993e-01
3.870967741935483764e-01
3.790322580645161255e-01
3.677419354838709631e-01
3.596774193548387122e-01
3.080645161290322398e-01
2.548387096774193394e-01
2.548387096774193394e-01
2.564516129032258229e-01
2.596774193548387344e-01
3.580645161290322842e-01
3.870967741935483764e-01
3.870967741935483764e-01
3.870967741935483764e-01
2.580645161290322509e-01
2.677419354838709853e-01
2.677419354838709853e-01
2.629032258064515903e-01
2.612903225806451624e-01
2.645161290322580738e-01
3.419354838709677269e-01
4.193548387096774355e-01
3.403225806451612989e-01
3.387096774193548154e-01
3.387096774193548154e-01
2.548387096774193394e-01
2.564516129032258229e-01
2.564516129032258229e-01
2.548387096774193394e-01
2.516129032258064280e-01
2.516129032258064280e-01
2.564516129032258229e-01
2.580645161290322509e-01
2.580645161290322509e-01
2.564516129032258229e-01
2.548387096774193394e-01
2.500000000000000000e-01
2.532258064516129115e-01
2.564516129032258229e-01
2.580645161290322509e-01
2.548387096774193394e-01
2.483870967741935443e-01
2.435483870967742048e-01
2.435483870967742048e-01
2.403225806451612934e-01
2.387096774193548376e-01
2.354838709677419262e-01
2.387096774193548376e-01
2.435483870967742048e-01
2.483870967741935443e-01
2.548387096774193394e-01
2.564516129032258229e-01
2.564516129032258229e-01
2.516129032258064280e-01
2.500000000000000000e-01
2.500000000000000000e-01
2.532258064516129115e-01
2.532258064516129115e-01
2.532258064516129115e-01
2.532258064516129115e-01
2.516129032258064280e-01
2.500000000000000000e-01
2.548387096774193394e-01
2.500000000000000000e-01
2.290322580645161310e-01
2.016129032258064391e-01
1.709677419354838634e-01
1.467741935483870830e-01
1.677419354838709797e-01
1.919354838709677324e-01
2.193548387096774244e-01
2.403225806451612934e-01
2.500000000000000000e-01
2.596774193548387344e-01
2.612903225806451624e-01
2.596774193548387344e-01
2.548387096774193394e-01
2.548387096774193394e-01
2.532258064516129115e-01
2.580645161290322509e-01
2.580645161290322509e-01
2.580645161290322509e-01
2.548387096774193394e-01
2.483870967741935443e-01
2.467741935483870885e-01
2.500000000000000000e-01
2.548387096774193394e-01
2.564516129032258229e-01
2.564516129032258229e-01
2.564516129032258229e-01
2.580645161290322509e-01
2.580645161290322509e-01
2.596774193548387344e-01
2.596774193548387344e-01
2.596774193548387344e-01
2.596774193548387344e-01
2.564516129032258229e-01
2.548387096774193394e-01
2.532258064516129115e-01
2.532258064516129115e-01
2.500000000000000000e-01
2.483870967741935443e-01
2.435483870967742048e-01
2.419354838709677491e-01
2.419354838709677491e-01
2.467741935483870885e-01
2.483870967741935443e-01
2.516129032258064280e-01
2.516129032258064280e-01
2.483870967741935443e-01
2.419354838709677491e-01
2.354838709677419262e-01
2.370967741935483819e-01
2.387096774193548376e-01
2.451612903225806328e-01
2.459677419354838745e-01
2.467741935483870885e-01
2.451612903225806328e-01
2.435483870967742048e-01
2.403225806451612934e-01
2.354838709677419262e-01
2.354838709677419262e-01
2.387096774193548376e-01
2.403225806451612934e-01
2.419354838709677491e-01
2.435483870967742048e-01
2.435483870967742048e-01
2.500000000000000000e-01
2.516129032258064280e-01
2.580645161290322509e-01
2.612903225806451624e-01
2.645161290322580738e-01
2.596774193548387344e-01
2.564516129032258229e-01
2.516129032258064280e-01
2.532258064516129115e-01
2.532258064516129115e-01
2.548387096774193394e-01
2.532258064516129115e-01
2.500000000000000000e-01
2.500000000000000000e-01
2.564516129032258229e-01
2.564516129032258229e-01
2.500000000000000000e-01
2.500000000000000000e-01
2.500000000000000000e-01
2.435483870967742048e-01
2.419354838709677491e-01
2.532258064516129115e-01
2.548387096774193394e-01
2.516129032258064280e-01
2.483870967741935443e-01
2.532258064516129115e-01
2.612903225806451624e-01
2.629032258064515903e-01
2.661290322580645018e-01
2.612903225806451624e-01
2.612903225806451624e-01
2.612903225806451624e-01
2.645161290322580738e-01
2.612903225806451624e-01
2.596774193548387344e-01
2.564516129032258229e-01
2.483870967741935443e-01
2.516129032258064280e-01
2.548387096774193394e-01
2.500000000000000000e-01
2.483870967741935443e-01
2.532258064516129115e-01
2.612903225806451624e-01
2.596774193548387344e-01
2.596774193548387344e-01
2.596774193548387344e-01
2.596774193548387344e-01
2.580645161290322509e-01
2.548387096774193394e-01
2.500000000000000000e-01
2.516129032258064280e-01
2.532258064516129115e-01
2.467741935483870885e-01
2.451612903225806328e-01
2.483870967741935443e-01
2.548387096774193394e-01
2.516129032258064280e-01
2.516129032258064280e-01
2.532258064516129115e-01
2.548387096774193394e-01
2.532258064516129115e-01
2.516129032258064280e-01
2.451612903225806328e-01
2.467741935483870885e-01
2.532258064516129115e-01
2.548387096774193394e-01
2.596774193548387344e-01
2.612903225806451624e-01
2.580645161290322509e-01
2.548387096774193394e-01
2.500000000000000000e-01
2.435483870967742048e-01
2.467741935483870885e-01
2.516129032258064280e-01
2.500000000000000000e-01
2.500000000000000000e-01
2.467741935483870885e-01
2.564516129032258229e-01
2.532258064516129115e-01
2.500000000000000000e-01
2.435483870967742048e-01
2.451612903225806328e-01
2.500000000000000000e-01
2.467741935483870885e-01
2.483870967741935443e-01
2.500000000000000000e-01
2.532258064516129115e-01
2.500000000000000000e-01
2.516129032258064280e-01
2.516129032258064280e-01
2.500000000000000000e-01
2.483870967741935443e-01
2.483870967741935443e-01
2.467741935483870885e-01
2.451612903225806328e-01
2.419354838709677491e-01
2.403225806451612934e-01
2.403225806451612934e-01
2.387096774193548376e-01
2.370967741935483819e-01
2.403225806451612934e-01
2.451612903225806328e-01
2.435483870967742048e-01
2.387096774193548376e-01
2.435483870967742048e-01
2.548387096774193394e-01
2.532258064516129115e-01
2.451612903225806328e-01
2.419354838709677491e-01
2.451612903225806328e-01
2.483870967741935443e-01
2.467741935483870885e-01
2.435483870967742048e-01
2.467741935483870885e-01
2.500000000000000000e-01
2.500000000000000000e-01
2.500000000000000000e-01
2.564516129032258229e-01
2.580645161290322509e-01
2.483870967741935443e-01
2.274193548387096753e-01
1.935483870967741882e-01
1.725806451612903192e-01
1.483870967741935387e-01
1.661290322580645240e-01
1.919354838709677324e-01
2.145161290322580572e-01
2.306451612903225867e-01
2.370967741935483819e-01
2.419354838709677491e-01
2.451612903225806328e-01
2.451612903225806328e-01
2.516129032258064280e-01
2.548387096774193394e-01
2.548387096774193394e-01
2.532258064516129115e-01
2.596774193548387344e-01
2.596774193548387344e-01
2.500000000000000000e-01
2.435483870967742048e-01
2.500000000000000000e-01
2.580645161290322509e-01
2.580645161290322509e-01
2.548387096774193394e-01
2.532258064516129115e-01
2.516129032258064280e-01
2.483870967741935443e-01
2.467741935483870885e-01
2.548387096774193394e-01
2.548387096774193394e-01
2.467741935483870885e-01
2.467741935483870885e-01
2.548387096774193394e-01
2.612903225806451624e-01
2.580645161290322509e-01
2.596774193548387344e-01
2.580645161290322509e-01
2.516129032258064280e-01
2.483870967741935443e-01
2.451612903225806328e-01
2.483870967741935443e-01
2.548387096774193394e-01
2.548387096774193394e-01
2.532258064516129115e-01
2.532258064516129115e-01
2.500000000000000000e-01
2.483870967741935443e-01
2.483870967741935443e-01
2.516129032258064280e-01
2.548387096774193394e-01
2.548387096774193394e-01
2.500000000000000000e-01
2.483870967741935443e-01
2.387096774193548376e-01
2.290322580645161310e-01
2.370967741935483819e-01
2.467741935483870885e-01
2.467741935483870885e-01
2.419354838709677491e-01
2.403225806451612934e-01
2.387096774193548376e-01
2.387096774193548376e-01
2.419354838709677491e-01
2.419354838709677491e-01
2.483870967741935443e-01
2.483870967741935443e-01
2.451612903225806328e-01
2.451612903225806328e-01
2.483870967741935443e-01
2.500000000000000000e-01
2.516129032258064280e-01
2.516129032258064280e-01
2.500000000000000000e-01
2.500000000000000000e-01
2.532258064516129115e-01
2.596774193548387344e-01
2.612903225806451624e-01
2.645161290322580738e-01
2.629032258064515903e-01
2.564516129032258229e-01
2.564516129032258229e-01
2.564516129032258229e-01
2.564516129032258229e-01
2.548387096774193394e-01
2.483870967741935443e-01
2.548387096774193394e-01
2.564516129032258229e-01
2.645161290322580738e-01
2.629032258064515903e-01
2.629032258064515903e-01
2.612903225806451624e-01
2.612903225806451624e-01
2.612903225806451624e-01
2.612903225806451624e-01
2.580645161290322509e-01
2.580645161290322509e-01
2.596774193548387344e-01
2.612903225806451624e-01
2.596774193548387344e-01
2.596774193548387344e-01
2.596774193548387344e-01
2.580645161290322509e-01
2.580645161290322509e-01
2.532258064516129115e-01
2.532258064516129115e-01
2.564516129032258229e-01
2.580645161290322509e-01
2.548387096774193394e-01
2.483870967741935443e-01
2.467741935483870885e-01
2.483870967741935443e-01
2.532258064516129115e-01
2.580645161290322509e-01
2.564516129032258229e-01
2.548387096774193394e-01
2.500000000000000000e-01
2.467741935483870885e-01
2.451612903225806328e-01
2.483870967741935443e-01
2.532258064516129115e-01
2.532258064516129115e-01
2.548387096774193394e-01
2.580645161290322509e-01
2.580645161290322509e-01
2.564516129032258229e-01
2.548387096774193394e-01
2.500000000000000000e-01
2.483870967741935443e-01
2.516129032258064280e-01
2.548387096774193394e-01
2.532258064516129115e-01
2.532258064516129115e-01
2.516129032258064280e-01
2.435483870967742048e-01
2.419354838709677491e-01
2.403225806451612934e-01
2.419354838709677491e-01
2.435483870967742048e-01
2.467741935483870885e-01
2.483870967741935443e-01
2.532258064516129115e-01
2.532258064516129115e-01
2.532258064516129115e-01
2.564516129032258229e-01
2.580645161290322509e-01
2.564516129032258229e-01
2.564516129032258229e-01
2.548387096774193394e-01
2.548387096774193394e-01
2.532258064516129115e-01
2.532258064516129115e-01
2.516129032258064280e-01
2.467741935483870885e-01
2.419354838709677491e-01
2.419354838709677491e-01
2.435483870967742048e-01
2.467741935483870885e-01
2.483870967741935443e-01
2.483870967741935443e-01
2.500000000000000000e-01
2.483870967741935443e-01
2.419354838709677491e-01
2.387096774193548376e-01
2.322580645161290425e-01
2.306451612903225867e-01
2.290322580645161310e-01
2.290322580645161310e-01
2.258064516129032195e-01
2.225806451612903358e-01
2.290322580645161310e-01
2.322580645161290425e-01
2.387096774193548376e-01
2.419354838709677491e-01
2.419354838709677491e-01
2.435483870967742048e-01
2.451612903225806328e-01
2.435483870967742048e-01
2.435483870967742048e-01
2.516129032258064280e-01
2.596774193548387344e-01
2.580645161290322509e-01
2.500000000000000000e-01
2.483870967741935443e-01
2.451612903225806328e-01
2.483870967741935443e-01
2.419354838709677491e-01
2.161290322580645129e-01
1.951612903225806439e-01
1.580645161290322454e-01
1.467741935483870830e-01
1.693548387096774077e-01
1.806451612903225701e-01
2.193548387096774244e-01
2.306451612903225867e-01
2.403225806451612934e-01
2.467741935483870885e-01
2.532258064516129115e-01
2.548387096774193394e-01
2.564516129032258229e-01
2.548387096774193394e-01
2.500000000000000000e-01
2.435483870967742048e-01
2.435483870967742048e-01
2.435483870967742048e-01
2.516129032258064280e-01
2.516129032258064280e-01
2.548387096774193394e-01
2.500000000000000000e-01
2.435483870967742048e-01
2.403225806451612934e-01
2.483870967741935443e-01
2.483870967741935443e-01
2.483870967741935443e-01
2.483870967741935443e-01
2.516129032258064280e-01
2.532258064516129115e-01
3.629032258064516236e-01
3.677419354838709631e-01
3.758064516129032140e-01
3.838709677419354649e-01
3.919354838709677158e-01
3.967741935483871107e-01
4.064516129032257896e-01
4.145161290322580405e-01
4.177419354838709520e-01
4.145161290322580405e-01
4.096774193548387011e-01
3.983870967741935387e-01
3.870967741935483764e-01
3.822580645161290369e-01
3.725806451612903025e-01
3.629032258064516236e-01
3.612903225806451402e-01
2.806451612903225756e-01
1.951612903225806439e-01
1.919354838709677324e-01
3.645161290322580516e-01
3.677419354838709631e-01
3.645161290322580516e-01
3.629032258064516236e-01
3.645161290322580516e-01
3.838709677419354649e-01
3.806451612903225534e-01
3.612903225806451402e-01
3.645161290322580516e-01
3.629032258064516236e-01
3.758064516129032140e-01
3.725806451612903025e-01
3.741935483870967860e-01
3.741935483870967860e-01
2.290322580645161310e-01
2.306451612903225867e-01
2.322580645161290425e-01
2.403225806451612934e-01
2.419354838709677491e-01
2.435483870967742048e-01
2.483870967741935443e-01
2.483870967741935443e-01
2.516129032258064280e-01
2.532258064516129115e-01
2.548387096774193394e-01
2.580645161290322509e-01
2.580645161290322509e-01
2.596774193548387344e-01
2.596774193548387344e-01
2.596774193548387344e-01
2.596774193548387344e-01
2.596774193548387344e-01
2.596774193548387344e-01
2.612903225806451624e-01
2.612903225806451624e-01
2.612903225806451624e-01
2.612903225806451624e-01
2.612903225806451624e-01
2.596774193548387344e-01
2.596774193548387344e-01
2.596774193548387344e-01
2.580645161290322509e-01
2.580645161290322509e-01
2.580645161290322509e-01
2.564516129032258229e-01
2.564516129032258229e-01
2.548387096774193394e-01
2.548387096774193394e-01
2.548387096774193394e-01
2.532258064516129115e-01
2.532258064516129115e-01
2.532258064516129115e-01
2.516129032258064280e-01
2.500000000000000000e-01
2.483870967741935443e-01
2.467741935483870885e-01
2.467741935483870885e-01
2.467741935483870885e-01
2.467741935483870885e-01
2.467741935483870885e-01
2.467741935483870885e-01
2.467741935483870885e-01
2.467741935483870885e-01
2.467741935483870885e-01
2.467741935483870885e-01
2.467741935483870885e-01
2.467741935483870885e-01
2.467741935483870885e-01
2.483870967741935443e-01
2.483870967741935443e-01
2.483870967741935443e-01
2.483870967741935443e-01
2.500000000000000000e-01
2.500000000000000000e-01
2.500000000000000000e-01
2.500000000000000000e-01
2.532258064516129115e-01
2.532258064516129115e-01
2.500000000000000000e-01
2.483870967741935443e-01
2.467741935483870885e-01
2.483870967741935443e-01
2.483870967741935443e-01
2.483870967741935443e-01
2.500000000000000000e-01
2.532258064516129115e-01
2.532258064516129115e-01
2.532258064516129115e-01
2.532258064516129115e-01
2.532258064516129115e-01
2.532258064516129115e-01
2.532258064516129115e-01
2.532258064516129115e-01
2.532258064516129115e-01
2.532258064516129115e-01
2.532258064516129115e-01
2.532258064516129115e-01
2.532258064516129115e-01
2.532258064516129115e-01
2.500000000000000000e-01
2.500000000000000000e-01
2.500000000000000000e-01
2.500000000000000000e-01
2.500000000000000000e-01
2.483870967741935443e-01
2.483870967741935443e-01
2.483870967741935443e-01
2.483870967741935443e-01
2.451612903225806328e-01
2.419354838709677491e-01
2.387096774193548376e-01
2.387096774193548376e-01
2.370967741935483819e-01
2.387096774193548376e-01
2.419354838709677491e-01
2.419354838709677491e-01
2.387096774193548376e-01
2.370967741935483819e-01
2.354838709677419262e-01
2.387096774193548376e-01
2.419354838709677491e-01
2.435483870967742048e-01
2.435483870967742048e-01
2.435483870967742048e-01
2.435483870967742048e-01
2.467741935483870885e-01
2.467741935483870885e-01
2.467741935483870885e-01
2.483870967741935443e-01
2.483870967741935443e-01
2.483870967741935443e-01
2.483870967741935443e-01
2.435483870967742048e-01
2.419354838709677491e-01
2.258064516129032195e-01
2.193548387096774244e-01
1.725806451612903192e-01
1.661290322580645240e-01
1.709677419354838634e-01
2.209677419354838801e-01
3.129032258064516347e-01
4.145161290322580405e-01
4.822580645161290147e-01
5.612903225806451513e-01
5.354838709677419706e-01
4.629032258064516014e-01
4.048387096774193616e-01
3.467741935483871218e-01
2.983870967741935609e-01
2.741935483870967527e-01
2.548387096774193394e-01
2.467741935483870885e-01
2.403225806451612934e-01
2.370967741935483819e-01
2.354838709677419262e-01
2.338709677419354704e-01
2.338709677419354704e-01
2.306451612903225867e-01
2.290322580645161310e-01
2.258064516129032195e-01
2.225806451612903358e-01
2.225806451612903358e-01
2.209677419354838801e-01
2.209677419354838801e-01
2.209677419354838801e-01
2.193548387096774244e-01
2.193548387096774244e-01
2.193548387096774244e-01
2.193548387096774244e-01
2.177419354838709686e-01
2.177419354838709686e-01
2.177419354838709686e-01
2.177419354838709686e-01
2.161290322580645129e-01
2.145161290322580572e-01
2.129032258064516014e-01
2.112903225806451735e-01
2.096774193548387177e-01
2.080645161290322620e-01
2.048387096774193505e-01
2.048387096774193505e-01
2.000000000000000111e-01
1.983870967741935554e-01
1.935483870967741882e-01
1.919354838709677324e-01
1.870967741935483930e-01
1.854838709677419373e-01
1.774193548387096864e-01
1.741935483870967749e-01
1.709677419354838634e-01
1.709677419354838634e-01
1.693548387096774077e-01
1.693548387096774077e-01
1.709677419354838634e-01
1.758064516129032306e-01
1.806451612903225701e-01
1.838709677419354815e-01
1.903225806451612767e-01
1.967741935483870996e-01
2.016129032258064391e-01
2.048387096774193505e-01
2.112903225806451735e-01
2.161290322580645129e-01
2.209677419354838801e-01
2.241935483870967638e-01
2.290322580645161310e-01
2.338709677419354704e-01
2.354838709677419262e-01
2.387096774193548376e-01
2.387096774193548376e-01
2.419354838709677491e-01
2.419354838709677491e-01
2.435483870967742048e-01
2.435483870967742048e-01
2.467741935483870885e-01
2.467741935483870885e-01
2.483870967741935443e-01
2.516129032258064280e-01
2.532258064516129115e-01
2.532258064516129115e-01
2.548387096774193394e-01
2.564516129032258229e-01
2.564516129032258229e-01
2.564516129032258229e-01
2.564516129032258229e-01
2.580645161290322509e-01
2.580645161290322509e-01
2.580645161290322509e-01
2.580645161290322509e-01
2.596774193548387344e-01
2.596774193548387344e-01
2.580645161290322509e-01
2.564516129032258229e-01
2.500000000000000000e-01
2.483870967741935443e-01
2.467741935483870885e-01
2.467741935483870885e-01
2.451612903225806328e-01
2.419354838709677491e-01
2.419354838709677491e-01
2.419354838709677491e-01
2.419354838709677491e-01
2.435483870967742048e-01
2.435483870967742048e-01
2.435483870967742048e-01
2.435483870967742048e-01
2.435483870967742048e-01
2.467741935483870885e-01
2.483870967741935443e-01
2.483870967741935443e-01
2.483870967741935443e-01
2.483870967741935443e-01
2.500000000000000000e-01
2.516129032258064280e-01
2.532258064516129115e-01
2.532258064516129115e-01
2.548387096774193394e-01
2.548387096774193394e-01
2.548387096774193394e-01
2.548387096774193394e-01
2.548387096774193394e-01
2.564516129032258229e-01
2.548387096774193394e-01
2.548387096774193394e-01
2.548387096774193394e-01
2.548387096774193394e-01
2.564516129032258229e-01
2.580645161290322509e-01
2.596774193548387344e-01
2.612903225806451624e-01
2.612903225806451624e-01
2.612903225806451624e-01
2.612903225806451624e-01
2.596774193548387344e-01
2.596774193548387344e-01
2.596774193548387344e-01
2.596774193548387344e-01
2.596774193548387344e-01
2.596774193548387344e-01
2.580645161290322509e-01
2.580645161290322509e-01
2.580645161290322509e-01
2.580645161290322509e-01
2.580645161290322509e-01
2.580645161290322509e-01
2.564516129032258229e-01
2.564516129032258229e-01
2.564516129032258229e-01
2.564516129032258229e-01
2.564516129032258229e-01
2.596774193548387344e-01
2.612903225806451624e-01
2.596774193548387344e-01
2.580645161290322509e-01
2.580645161290322509e-01
2.580645161290322509e-01
2.564516129032258229e-01
2.548387096774193394e-01
2.548387096774193394e-01
2.532258064516129115e-01
2.532258064516129115e-01
2.532258064516129115e-01
2.532258064516129115e-01
2.532258064516129115e-01
2.532258064516129115e-01
2.532258064516129115e-01
2.532258064516129115e-01
2.532258064516129115e-01
2.548387096774193394e-01
2.564516129032258229e-01
2.580645161290322509e-01
2.596774193548387344e-01
2.596774193548387344e-01
2.596774193548387344e-01
2.629032258064515903e-01
2.645161290322580738e-01
2.645161290322580738e-01
2.629032258064515903e-01
2.612903225806451624e-01
2.612903225806451624e-01
2.596774193548387344e-01
2.580645161290322509e-01
2.564516129032258229e-01
2.483870967741935443e-01
2.290322580645161310e-01
2.129032258064516014e-01
1.806451612903225701e-01
1.741935483870967749e-01
2.048387096774193505e-01
2.758064516129032362e-01
3.822580645161290369e-01
4.435483870967741882e-01
5.741935483870967971e-01
5.548387096774193283e-01
5.000000000000000000e-01
4.467741935483870996e-01
3.838709677419354649e-01
3.258064516129032251e-01
2.951612903225806495e-01
2.693548387096774133e-01
2.580645161290322509e-01
2.483870967741935443e-01
2.419354838709677491e-01
2.387096774193548376e-01
2.387096774193548376e-01
2.387096774193548376e-01
2.370967741935483819e-01
2.354838709677419262e-01
2.338709677419354704e-01
2.322580645161290425e-01
2.322580645161290425e-01
2.322580645161290425e-01
2.306451612903225867e-01
2.322580645161290425e-01
2.322580645161290425e-01
2.290322580645161310e-01
2.274193548387096753e-01
2.225806451612903358e-01
2.225806451612903358e-01
2.209677419354838801e-01
2.193548387096774244e-01
2.193548387096774244e-01
2.193548387096774244e-01
2.161290322580645129e-01
2.129032258064516014e-01
2.112903225806451735e-01
2.096774193548387177e-01
2.064516129032258063e-01
2.048387096774193505e-01
2.000000000000000111e-01
1.967741935483870996e-01
1.935483870967741882e-01
1.903225806451612767e-01
1.838709677419354815e-01
1.806451612903225701e-01
1.758064516129032306e-01
1.725806451612903192e-01
1.709677419354838634e-01
1.677419354838709797e-01
1.661290322580645240e-01
1.661290322580645240e-01
1.661290322580645240e-01
1.661290322580645240e-01
1.677419354838709797e-01
1.725806451612903192e-01
1.758064516129032306e-01
1.822580645161290258e-01
1.903225806451612767e-01
1.951612903225806439e-01
2.032258064516128948e-01
2.096774193548387177e-01
2.145161290322580572e-01
2.193548387096774244e-01
2.258064516129032195e-01
2.306451612903225867e-01
2.338709677419354704e-01
2.370967741935483819e-01
2.419354838709677491e-01
2.419354838709677491e-01
2.435483870967742048e-01
2.435483870967742048e-01
2.435483870967742048e-01
2.483870967741935443e-01
2.483870967741935443e-01
2.483870967741935443e-01
2.500000000000000000e-01
2.532258064516129115e-01
2.532258064516129115e-01
2.532258064516129115e-01
2.532258064516129115e-01
2.548387096774193394e-01
2.564516129032258229e-01
2.564516129032258229e-01
2.580645161290322509e-01
2.580645161290322509e-01
2.564516129032258229e-01
2.564516129032258229e-01
2.564516129032258229e-01
2.564516129032258229e-01
2.564516129032258229e-01
2.548387096774193394e-01
2.548387096774193394e-01
2.548387096774193394e-01
2.548387096774193394e-01
2.548387096774193394e-01
2.548387096774193394e-01
2.564516129032258229e-01
2.548387096774193394e-01
2.548387096774193394e-01
2.548387096774193394e-01
2.548387096774193394e-01
2.548387096774193394e-01
2.548387096774193394e-01
2.548387096774193394e-01
2.564516129032258229e-01
2.548387096774193394e-01
2.548387096774193394e-01
2.548387096774193394e-01
2.532258064516129115e-01
2.532258064516129115e-01
2.532258064516129115e-01
2.532258064516129115e-01
2.532258064516129115e-01
2.532258064516129115e-01
2.532258064516129115e-01
2.532258064516129115e-01
2.532258064516129115e-01
2.532258064516129115e-01
2.532258064516129115e-01
2.532258064516129115e-01
2.532258064516129115e-01
2.532258064516129115e-01
2.548387096774193394e-01
2.564516129032258229e-01
2.580645161290322509e-01
2.596774193548387344e-01
2.596774193548387344e-01
2.580645161290322509e-01
2.580645161290322509e-01
2.580645161290322509e-01
2.580645161290322509e-01
2.564516129032258229e-01
2.564516129032258229e-01
2.564516129032258229e-01
2.564516129032258229e-01
2.564516129032258229e-01
2.483870967741935443e-01
2.483870967741935443e-01
2.483870967741935443e-01
2.483870967741935443e-01
2.483870967741935443e-01
2.548387096774193394e-01
3.612903225806451402e-01
3.677419354838709631e-01
3.758064516129032140e-01
3.806451612903225534e-01
3.903225806451612878e-01
4.000000000000000222e-01
4.096774193548387011e-01
4.129032258064516125e-01
4.161290322580645240e-01
4.129032258064516125e-01
4.096774193548387011e-01
4.000000000000000222e-01
3.903225806451612878e-01
3.822580645161290369e-01
3.741935483870967860e-01
3.645161290322580516e-01
3.612903225806451402e-01
3.032258064516129004e-01
2.435483870967742048e-01
2.419354838709677491e-01
3.306451612903225645e-01
3.725806451612903025e-01
3.725806451612903025e-01
3.725806451612903025e-01
3.822580645161290369e-01
3.806451612903225534e-01
3.612903225806451402e-01
3.709677419354838745e-01
3.709677419354838745e-01
3.806451612903225534e-01
3.854838709677419484e-01
3.935483870967741993e-01
3.951612903225806273e-01
4.000000000000000222e-01
3.983870967741935387e-01
2.612903225806451624e-01
2.629032258064515903e-01
2.596774193548387344e-01
2.548387096774193394e-01
2.338709677419354704e-01
2.096774193548387177e-01
1.774193548387096864e-01
1.467741935483870830e-01
1.306451612903225812e-01
1.419354838709677435e-01
1.741935483870967749e-01
2.016129032258064391e-01
2.209677419354838801e-01
2.387096774193548376e-01
2.580645161290322509e-01
2.629032258064515903e-01
2.629032258064515903e-01
2.645161290322580738e-01
2.629032258064515903e-01
2.612903225806451624e-01
2.596774193548387344e-01
2.580645161290322509e-01
2.564516129032258229e-01
2.564516129032258229e-01
2.548387096774193394e-01
2.548387096774193394e-01
2.564516129032258229e-01
2.580645161290322509e-01
2.596774193548387344e-01
2.580645161290322509e-01
2.548387096774193394e-01
2.548387096774193394e-01
2.532258064516129115e-01
2.532258064516129115e-01
2.532258064516129115e-01
2.532258064516129115e-01
2.532258064516129115e-01
2.532258064516129115e-01
2.500000000000000000e-01
2.500000000000000000e-01
2.483870967741935443e-01
2.483870967741935443e-01
2.483870967741935443e-01
2.500000000000000000e-01
2.532258064516129115e-01
2.532258064516129115e-01
2.532258064516129115e-01
2.532258064516129115e-01
2.500000000000000000e-01
2.483870967741935443e-01
2.467741935483870885e-01
2.419354838709677491e-01
2.370967741935483819e-01
2.354838709677419262e-01
2.274193548387096753e-01
2.225806451612903358e-01
2.193548387096774244e-01
2.161290322580645129e-01
2.096774193548387177e-01
2.080645161290322620e-01
2.032258064516128948e-01
2.000000000000000111e-01
1.967741935483870996e-01
1.935483870967741882e-01
1.919354838709677324e-01
1.919354838709677324e-01
1.967741935483870996e-01
2.032258064516128948e-01
2.080645161290322620e-01
2.145161290322580572e-01
2.225806451612903358e-01
2.290322580645161310e-01
2.338709677419354704e-01
2.354838709677419262e-01
2.387096774193548376e-01
2.419354838709677491e-01
2.435483870967742048e-01
2.435483870967742048e-01
2.483870967741935443e-01
2.483870967741935443e-01
2.483870967741935443e-01
2.532258064516129115e-01
2.548387096774193394e-01
2.564516129032258229e-01
2.580645161290322509e-01
2.580645161290322509e-01
2.580645161290322509e-01
2.580645161290322509e-01
2.580645161290322509e-01
2.580645161290322509e-01
2.580645161290322509e-01
2.580645161290322509e-01
2.612903225806451624e-01
2.645161290322580738e-01
2.645161290322580738e-01
2.645161290322580738e-01
2.629032258064515903e-01
2.612903225806451624e-01
2.612903225806451624e-01
2.612903225806451624e-01
2.604838709677419484e-01
2.596774193548387344e-01
2.596774193548387344e-01
2.596774193548387344e-01
2.580645161290322509e-01
2.580645161290322509e-01
2.564516129032258229e-01
2.548387096774193394e-01
2.548387096774193394e-01
2.532258064516129115e-01
2.532258064516129115e-01
2.532258064516129115e-01
2.532258064516129115e-01
2.532258064516129115e-01
2.532258064516129115e-01
2.532258064516129115e-01
2.532258064516129115e-01
2.532258064516129115e-01
2.532258064516129115e-01
2.532258064516129115e-01
2.532258064516129115e-01
2.532258064516129115e-01
2.532258064516129115e-01
2.532258064516129115e-01
2.532258064516129115e-01
2.532258064516129115e-01
2.532258064516129115e-01
2.532258064516129115e-01
2.532258064516129115e-01
2.532258064516129115e-01
2.532258064516129115e-01
2.532258064516129115e-01
2.548387096774193394e-01
2.564516129032258229e-01
2.564516129032258229e-01
2.548387096774193394e-01
2.548387096774193394e-01
2.548387096774193394e-01
2.548387096774193394e-01
2.548387096774193394e-01
2.532258064516129115e-01
2.532258064516129115e-01
2.532258064516129115e-01
2.548387096774193394e-01
2.548387096774193394e-01
2.564516129032258229e-01
2.564516129032258229e-01
2.564516129032258229e-01
2.564516129032258229e-01
2.564516129032258229e-01
2.564516129032258229e-01
2.564516129032258229e-01
2.564516129032258229e-01
2.564516129032258229e-01
2.564516129032258229e-01
2.548387096774193394e-01
2.548387096774193394e-01
2.483870967741935443e-01
2.483870967741935443e-01
2.483870967741935443e-01
2.483870967741935443e-01
2.435483870967742048e-01
2.419354838709677491e-01
2.387096774193548376e-01
2.370967741935483819e-01
2.354838709677419262e-01
2.370967741935483819e-01
2.370967741935483819e-01
2.387096774193548376e-01
2.403225806451612934e-01
2.451612903225806328e-01
2.500000000000000000e-01
2.548387096774193394e-01
2.564516129032258229e-01
2.564516129032258229e-01
2.564516129032258229e-01
2.564516129032258229e-01
2.596774193548387344e-01
2.596774193548387344e-01
2.629032258064515903e-01
2.629032258064515903e-01
2.629032258064515903e-01
2.612903225806451624e-01
2.483870967741935443e-01
2.274193548387096753e-01
1.967741935483870996e-01
1.725806451612903192e-01
1.532258064516129059e-01
1.000000000000000000e+00
1.499999999999999944e-01
1.951612903225806439e-01
2.258064516129032195e-01
2.354838709677419262e-01
2.483870967741935443e-01
2.596774193548387344e-01
2.629032258064515903e-01
2.677419354838709853e-01
2.693548387096774133e-01
2.693548387096774133e-01
2.693548387096774133e-01
2.677419354838709853e-01
2.677419354838709853e-01
2.677419354838709853e-01
2.677419354838709853e-01
2.677419354838709853e-01
2.645161290322580738e-01
2.645161290322580738e-01
2.612903225806451624e-01
2.596774193548387344e-01
2.596774193548387344e-01
2.596774193548387344e-01
2.596774193548387344e-01
2.596774193548387344e-01
2.596774193548387344e-01
2.580645161290322509e-01
2.580645161290322509e-01
2.580645161290322509e-01
2.580645161290322509e-01
2.572580645161290369e-01
2.564516129032258229e-01
2.548387096774193394e-01
2.548387096774193394e-01
2.548387096774193394e-01
2.532258064516129115e-01
2.532258064516129115e-01
2.532258064516129115e-01
2.532258064516129115e-01
2.532258064516129115e-01
2.500000000000000000e-01
2.483870967741935443e-01
2.483870967741935443e-01
2.419354838709677491e-01
2.403225806451612934e-01
2.370967741935483819e-01
2.338709677419354704e-01
2.290322580645161310e-01
2.241935483870967638e-01
2.193548387096774244e-01
2.177419354838709686e-01
2.129032258064516014e-01
2.080645161290322620e-01
2.016129032258064391e-01
2.000000000000000111e-01
2.000000000000000111e-01
2.016129032258064391e-01
2.032258064516128948e-01
2.048387096774193505e-01
2.080645161290322620e-01
2.145161290322580572e-01
2.209677419354838801e-01
2.274193548387096753e-01
2.338709677419354704e-01
2.370967741935483819e-01
2.419354838709677491e-01
2.419354838709677491e-01
2.435483870967742048e-01
2.435483870967742048e-01
2.467741935483870885e-01
2.500000000000000000e-01
2.532258064516129115e-01
2.548387096774193394e-01
2.548387096774193394e-01
2.580645161290322509e-01
2.580645161290322509e-01
2.580645161290322509e-01
2.596774193548387344e-01
2.596774193548387344e-01
2.596774193548387344e-01
2.596774193548387344e-01
2.596774193548387344e-01
2.596774193548387344e-01
2.596774193548387344e-01
2.596774193548387344e-01
2.596774193548387344e-01
2.612903225806451624e-01
2.612903225806451624e-01
2.596774193548387344e-01
2.596774193548387344e-01
2.596774193548387344e-01
2.596774193548387344e-01
2.596774193548387344e-01
2.596774193548387344e-01
2.596774193548387344e-01
2.596774193548387344e-01
2.596774193548387344e-01
2.596774193548387344e-01
2.580645161290322509e-01
2.580645161290322509e-01
2.564516129032258229e-01
2.564516129032258229e-01
2.548387096774193394e-01
2.548387096774193394e-01
2.532258064516129115e-01
2.532258064516129115e-01
2.532258064516129115e-01
2.532258064516129115e-01
2.548387096774193394e-01
2.564516129032258229e-01
2.596774193548387344e-01
2.612903225806451624e-01
2.596774193548387344e-01
2.596774193548387344e-01
2.596774193548387344e-01
2.596774193548387344e-01
2.596774193548387344e-01
2.596774193548387344e-01
2.596774193548387344e-01
2.596774193548387344e-01
2.596774193548387344e-01
2.596774193548387344e-01
2.596774193548387344e-01
2.596774193548387344e-01
2.596774193548387344e-01
2.596774193548387344e-01
2.596774193548387344e-01
2.596774193548387344e-01
2.596774193548387344e-01
2.596774193548387344e-01
2.596774193548387344e-01
2.596774193548387344e-01
2.612903225806451624e-01
2.612903225806451624e-01
2.612903225806451624e-01
2.612903225806451624e-01
2.629032258064515903e-01
2.629032258064515903e-01
2.629032258064515903e-01
2.645161290322580738e-01
2.645161290322580738e-01
2.645161290322580738e-01
2.645161290322580738e-01
2.629032258064515903e-01
2.629032258064515903e-01
2.629032258064515903e-01
2.612903225806451624e-01
2.612903225806451624e-01
2.612903225806451624e-01
2.604838709677419484e-01
2.596774193548387344e-01
2.596774193548387344e-01
2.596774193548387344e-01
2.596774193548387344e-01
2.580645161290322509e-01
2.580645161290322509e-01
2.564516129032258229e-01
2.548387096774193394e-01
2.548387096774193394e-01
2.548387096774193394e-01
2.532258064516129115e-01
2.532258064516129115e-01
2.532258064516129115e-01
2.500000000000000000e-01
2.500000000000000000e-01
2.467741935483870885e-01
2.435483870967742048e-01
2.419354838709677491e-01
2.419354838709677491e-01
2.403225806451612934e-01
2.419354838709677491e-01
2.467741935483870885e-01
2.500000000000000000e-01
2.564516129032258229e-01
2.612903225806451624e-01
2.661290322580645018e-01
2.677419354838709853e-01
2.677419354838709853e-01
2.677419354838709853e-01
2.693548387096774133e-01
2.693548387096774133e-01
2.693548387096774133e-01
2.709677419354838968e-01
2.709677419354838968e-01
2.661290322580645018e-01
2.467741935483870885e-01
2.241935483870967638e-01
1.919354838709677324e-01
1.532258064516129059e-01
1.419354838709677435e-01
1.548387096774193616e-01
1.806451612903225701e-01
2.080645161290322620e-01
