3.759630200308166637e-01
3.759630200308166637e-01
3.741620475056530726e-01
3.723610749804894815e-01
3.705601024553258904e-01
3.687591299301622438e-01
3.669581574049986528e-01
3.651571848798351172e-01
3.633562123546715261e-01
3.615552398295079350e-01
3.597542673043443440e-01
3.579532947791808084e-01
3.561523222540172173e-01
3.543513497288535152e-01
3.525503772036899797e-01
3.507494046785263886e-01
3.489484321533627975e-01
3.471474596281992619e-01
3.453464871030356709e-01
3.435455145778720798e-01
3.417445420527084887e-01
3.399435695275448421e-01
3.381425970023812511e-01
3.363416244772176600e-01
3.345406519520541244e-01
3.327396794268905333e-01
3.309387069017269423e-01
3.291377343765633512e-01
3.273367618513997046e-01
3.255357893262361135e-01
3.237348168010725780e-01
3.219338442759089869e-01
3.201328717507453958e-01
3.183318992255818047e-01
3.165309267004182692e-01
3.147299541752546781e-01
3.129289816500910870e-01
3.111280091249274404e-01
3.093270365997638494e-01
3.075260640746002583e-01
3.057250915494367227e-01
3.039241190242731316e-01
3.021231464991095406e-01
3.003221739739459495e-01
2.985212014487823029e-01
2.967202289236187118e-01
2.949192563984551763e-01
2.931182838732915852e-01
2.913173113481279941e-01
2.895163388229644030e-01
2.877153662978008675e-01
2.859143937726372764e-01
2.841134212474736298e-01
2.823124487223100387e-01
2.805114761971464477e-01
2.787105036719828566e-01
2.769095311468193210e-01
2.751085586216557299e-01
2.733075860964921389e-01
2.715066135713284923e-01
2.697056410461649012e-01
2.679046685210013101e-01
2.661036959958377190e-01
2.643027234706741835e-01
2.625017509455105924e-01
2.607007784203470013e-01
2.588998058951834103e-01
2.570988333700198747e-01
2.552978608448561726e-01
2.534968883196926370e-01
2.516959157945290460e-01
2.498949432693654549e-01
2.480939707442018916e-01
2.462929982190383005e-01
2.444920256938746539e-01
2.426910531687110628e-01
2.408900806435474995e-01
2.390891081183839084e-01
2.372881355932203451e-01
1.926040061633282063e-01
1.926040061633282063e-01
1.879815100154083318e-01
0.000000000000000000e+00
0.000000000000000000e+00
0.000000000000000000e+00
0.000000000000000000e+00
0.000000000000000000e+00
0.000000000000000000e+00
0.000000000000000000e+00
0.000000000000000000e+00
0.000000000000000000e+00
0.000000000000000000e+00
0.000000000000000000e+00
0.000000000000000000e+00
0.000000000000000000e+00
0.000000000000000000e+00
0.000000000000000000e+00
0.000000000000000000e+00
0.000000000000000000e+00
0.000000000000000000e+00
0.000000000000000000e+00
0.000000000000000000e+00
0.000000000000000000e+00
0.000000000000000000e+00
0.000000000000000000e+00
0.000000000000000000e+00
0.000000000000000000e+00
0.000000000000000000e+00
0.000000000000000000e+00
0.000000000000000000e+00
0.000000000000000000e+00
0.000000000000000000e+00
0.000000000000000000e+00
0.000000000000000000e+00
0.000000000000000000e+00
0.000000000000000000e+00
0.000000000000000000e+00
0.000000000000000000e+00
1.879815100154083318e-01
1.926040061633282063e-01
1.956856702619414468e-01
2.280431432973805961e-01
3.697996918335901273e-01
3.697996918335901273e-01
3.697996918335901273e-01
2.912172573189522606e-01
2.912172573189522606e-01
2.896764252696455988e-01
2.896764252696455988e-01
2.881355932203389925e-01
2.865947611710323306e-01
3.697996918335901273e-01
3.697996918335901273e-01
3.713405238828967891e-01
2.835130970724191179e-01
2.835130970724191179e-01
2.835130970724191179e-01
2.819722650231124561e-01
2.804314329738058498e-01
2.804314329738058498e-01
2.804314329738058498e-01
2.788906009244992434e-01
2.773497688751925816e-01
2.758089368258859753e-01
2.742681047765793689e-01
2.711864406779661008e-01
2.681047765793528326e-01
2.634822804314329581e-01
2.619414483821263517e-01
2.619414483821263517e-01
2.619414483821263517e-01
2.619414483821263517e-01
2.619414483821263517e-01
2.619414483821263517e-01
2.619414483821263517e-01
2.619414483821263517e-01
2.619414483821263517e-01
2.619414483821263517e-01
2.627118644067796827e-01
2.634822804314329581e-01
2.634822804314329581e-01
2.650231124807396199e-01
2.681047765793528326e-01
2.727272727272727071e-01
2.742681047765793689e-01
2.758089368258859753e-01
2.773497688751925816e-01
2.773497688751925816e-01
2.773497688751925816e-01
2.788906009244992434e-01
2.788906009244992434e-01
2.788906009244992434e-01
2.773497688751925816e-01
2.773497688751925816e-01
2.773497688751925816e-01
2.773497688751925816e-01
2.758089368258859753e-01
2.758089368258859753e-01
2.758089368258859753e-01
2.758089368258859753e-01
2.758089368258859753e-01
2.758089368258859753e-01
2.758089368258859753e-01
2.758089368258859753e-01
2.758089368258859753e-01
2.758089368258859753e-01
2.758089368258859753e-01
2.758089368258859753e-01
2.758089368258859753e-01
2.758089368258859753e-01
2.758089368258859753e-01
2.758089368258859753e-01
2.758089368258859753e-01
2.773497688751925816e-01
2.788906009244992434e-01
2.804314329738058498e-01
2.819722650231124561e-01
2.819722650231124561e-01
2.804314329738058498e-01
2.788906009244992434e-01
2.788906009244992434e-01
2.788906009244992434e-01
2.773497688751925816e-01
2.773497688751925816e-01
2.758089368258859753e-01
2.742681047765793689e-01
2.711864406779661008e-01
2.650231124807396199e-01
2.604006163328197454e-01
2.542372881355932090e-01
2.480739599383667282e-01
2.449922958397534600e-01
2.372881355932203451e-01
2.295839753466872024e-01
2.295839753466872024e-01
2.295839753466872024e-01
2.357473035439137110e-01
2.388289676425269514e-01
2.434514637904468537e-01
2.449922958397534600e-01
2.542372881355932090e-01
2.619414483821263517e-01
2.696456086286594944e-01
2.773497688751925816e-01
2.788906009244992434e-01
2.788906009244992434e-01
2.804314329738058498e-01
2.819722650231124561e-01
2.835130970724191179e-01
2.835130970724191179e-01
2.835130970724191179e-01
2.835130970724191179e-01
2.835130970724191179e-01
2.835130970724191179e-01
2.819722650231124561e-01
2.819722650231124561e-01
2.881355932203389925e-01
2.912172573189522606e-01
2.819722650231124561e-01
2.711864406779661008e-01
2.388289676425269514e-01
1.987673343605546872e-01
1.355932203389830504e-01
1.109399075500770437e-01
7.087827426810477949e-02
1.355932203389830504e-01
1.864406779661016977e-01
2.388289676425269514e-01
3.050847457627118842e-01
3.359013867488443994e-01
3.235747303543913822e-01
3.081664098613250968e-01
2.973805855161787415e-01
2.896764252696455988e-01
2.850539291217257243e-01
2.804314329738058498e-01
2.804314329738058498e-01
2.788906009244992434e-01
2.788906009244992434e-01
2.788906009244992434e-01
2.773497688751925816e-01
2.773497688751925816e-01
2.758089368258859753e-01
2.758089368258859753e-01
2.758089368258859753e-01
2.742681047765793689e-01
2.742681047765793689e-01
2.727272727272727071e-01
2.727272727272727071e-01
2.711864406779661008e-01
2.711864406779661008e-01
2.696456086286594944e-01
2.681047765793528326e-01
2.681047765793528326e-01
2.665639445300462262e-01
2.650231124807396199e-01
2.650231124807396199e-01
2.634822804314329581e-01
2.619414483821263517e-01
2.604006163328197454e-01
2.588597842835130836e-01
2.557781201848998709e-01
2.557781201848998709e-01
2.526964560862866027e-01
2.526964560862866027e-01
2.526964560862866027e-01
2.526964560862866027e-01
2.526964560862866027e-01
2.526964560862866027e-01
2.526964560862866027e-01
2.526964560862866027e-01
2.526964560862866027e-01
2.526964560862866027e-01
2.526964560862866027e-01
2.542372881355932090e-01
2.542372881355932090e-01
2.542372881355932090e-01
2.542372881355932090e-01
2.542372881355932090e-01
2.542372881355932090e-01
2.557781201848998709e-01
2.588597842835130836e-01
2.619414483821263517e-01
2.619414483821263517e-01
2.619414483821263517e-01
2.619414483821263517e-01
2.634822804314329581e-01
2.650231124807396199e-01
2.650231124807396199e-01
2.634822804314329581e-01
2.634822804314329581e-01
2.619414483821263517e-01
2.619414483821263517e-01
2.619414483821263517e-01
2.619414483821263517e-01
2.619414483821263517e-01
2.604006163328197454e-01
2.604006163328197454e-01
2.604006163328197454e-01
2.588597842835130836e-01
2.588597842835130836e-01
2.588597842835130836e-01
2.573189522342064772e-01
2.573189522342064772e-01
2.557781201848998709e-01
2.557781201848998709e-01
2.557781201848998709e-01
2.542372881355932090e-01
2.542372881355932090e-01
2.542372881355932090e-01
2.526964560862866027e-01
2.526964560862866027e-01
2.511556240369799964e-01
2.511556240369799964e-01
2.496147919876733345e-01
2.496147919876733345e-01
2.480739599383667282e-01
2.465331278890600941e-01
2.449922958397534600e-01
2.388289676425269514e-01
2.357473035439137110e-01
2.295839753466872024e-01
2.218798151001540875e-01
2.157164869029275789e-01
2.095531587057010703e-01
2.064714946070878299e-01
2.080123266563944640e-01
2.157164869029275789e-01
2.187981510015408193e-01
2.234206471494607216e-01
2.280431432973805961e-01
2.342064714946070769e-01
2.403697996918335855e-01
2.496147919876733345e-01
2.557781201848998709e-01
2.573189522342064772e-01
2.588597842835130836e-01
2.634822804314329581e-01
2.634822804314329581e-01
2.634822804314329581e-01
2.634822804314329581e-01
2.650231124807396199e-01
2.650231124807396199e-01
2.650231124807396199e-01
2.650231124807396199e-01
2.650231124807396199e-01
2.650231124807396199e-01
2.665639445300462262e-01
2.727272727272727071e-01
2.742681047765793689e-01
2.588597842835130836e-01
2.295839753466872024e-01
1.926040061633282063e-01
1.432973805855161653e-01
9.707241910631740633e-02
6.471494607087827089e-02
7.858243451463790830e-02
1.571648690292758166e-01
1.987673343605546872e-01
2.650231124807396199e-01
3.174114021571648458e-01
3.143297380585516332e-01
2.989214175654853478e-01
2.865947611710323306e-01
2.804314329738058498e-01
2.727272727272727071e-01
2.696456086286594944e-01
2.681047765793528326e-01
2.650231124807396199e-01
2.634822804314329581e-01
2.619414483821263517e-01
2.604006163328197454e-01
2.588597842835130836e-01
2.588597842835130836e-01
2.588597842835130836e-01
2.573189522342064772e-01
2.557781201848998709e-01
2.557781201848998709e-01
2.557781201848998709e-01
2.542372881355932090e-01
2.542372881355932090e-01
2.542372881355932090e-01
2.526964560862866027e-01
2.526964560862866027e-01
2.511556240369799964e-01
2.496147919876733345e-01
2.496147919876733345e-01
2.496147919876733345e-01
2.465331278890600941e-01
2.465331278890600941e-01
2.449922958397534600e-01
2.434514637904468537e-01
2.419106317411402196e-01
2.403697996918335855e-01
2.372881355932203451e-01
2.372881355932203451e-01
2.311248073959938365e-01
2.311248073959938365e-01
2.295839753466872024e-01
2.295839753466872024e-01
2.295839753466872024e-01
2.295839753466872024e-01
2.295839753466872024e-01
2.311248073959938365e-01
2.311248073959938365e-01
2.311248073959938365e-01
2.295839753466872024e-01
2.311248073959938365e-01
2.311248073959938365e-01
2.357473035439137110e-01
2.372881355932203451e-01
2.419106317411402196e-01
2.419106317411402196e-01
2.419106317411402196e-01
2.434514637904468537e-01
2.449922958397534600e-01
2.449922958397534600e-01
2.449922958397534600e-01
2.449922958397534600e-01
2.449922958397534600e-01
2.449922958397534600e-01
2.449922958397534600e-01
2.449922958397534600e-01
2.449922958397534600e-01
2.449922958397534600e-01
2.449922958397534600e-01
2.449922958397534600e-01
2.434514637904468537e-01
2.434514637904468537e-01
2.434514637904468537e-01
2.434514637904468537e-01
2.434514637904468537e-01
2.434514637904468537e-01
2.434514637904468537e-01
2.434514637904468537e-01
2.434514637904468537e-01
2.434514637904468537e-01
2.434514637904468537e-01
2.434514637904468537e-01
2.419106317411402196e-01
2.419106317411402196e-01
2.419106317411402196e-01
2.419106317411402196e-01
2.419106317411402196e-01
2.419106317411402196e-01
2.419106317411402196e-01
2.419106317411402196e-01
2.419106317411402196e-01
2.419106317411402196e-01
2.419106317411402196e-01
2.403697996918335855e-01
2.372881355932203451e-01
2.357473035439137110e-01
2.326656394453004706e-01
2.280431432973805961e-01
2.218798151001540875e-01
2.172573189522342130e-01
2.080123266563944640e-01
2.018489984591679554e-01
1.956856702619414468e-01
1.926040061633282063e-01
1.926040061633282063e-01
1.956856702619414468e-01
2.018489984591679554e-01
2.080123266563944640e-01
2.141756548536209448e-01
2.203389830508474534e-01
2.280431432973805961e-01
2.342064714946070769e-01
2.434514637904468537e-01
2.434514637904468537e-01
2.465331278890600941e-01
2.480739599383667282e-01
2.480739599383667282e-01
2.496147919876733345e-01
2.496147919876733345e-01
2.526964560862866027e-01
2.542372881355932090e-01
2.542372881355932090e-01
2.542372881355932090e-01
2.542372881355932090e-01
2.542372881355932090e-01
2.573189522342064772e-01
2.634822804314329581e-01
2.634822804314329581e-01
2.496147919876733345e-01
2.203389830508474534e-01
1.833590138674884573e-01
1.309707241910631759e-01
9.090909090909091161e-02
6.009244992295839638e-02
6.933744221879814540e-02
1.664098613251155656e-01
2.049306625577811958e-01
2.434514637904468537e-01
3.081664098613250968e-01
3.050847457627118842e-01
2.881355932203389925e-01
2.773497688751925816e-01
2.650231124807396199e-01
2.604006163328197454e-01
2.573189522342064772e-01
2.542372881355932090e-01
2.542372881355932090e-01
2.526964560862866027e-01
2.526964560862866027e-01
2.511556240369799964e-01
2.496147919876733345e-01
2.496147919876733345e-01
2.496147919876733345e-01
2.480739599383667282e-01
2.480739599383667282e-01
2.465331278890600941e-01
2.449922958397534600e-01
2.434514637904468537e-01
2.434514637904468537e-01
2.419106317411402196e-01
2.419106317411402196e-01
2.434514637904468537e-01
2.434514637904468537e-01
2.434514637904468537e-01
2.419106317411402196e-01
2.372881355932203451e-01
2.372881355932203451e-01
2.326656394453004706e-01
2.326656394453004706e-01
2.326656394453004706e-01
2.295839753466872024e-01
2.280431432973805961e-01
2.249614791987673279e-01
2.249614791987673279e-01
2.234206471494607216e-01
2.203389830508474534e-01
2.203389830508474534e-01
2.203389830508474534e-01
2.218798151001540875e-01
2.218798151001540875e-01
2.218798151001540875e-01
2.218798151001540875e-01
2.234206471494607216e-01
2.234206471494607216e-01
2.234206471494607216e-01
2.234206471494607216e-01
2.249614791987673279e-01
2.280431432973805961e-01
2.280431432973805961e-01
2.311248073959938365e-01
2.326656394453004706e-01
2.326656394453004706e-01
2.326656394453004706e-01
2.326656394453004706e-01
2.326656394453004706e-01
2.357473035439137110e-01
2.372881355932203451e-01
2.372881355932203451e-01
2.372881355932203451e-01
2.388289676425269514e-01
2.388289676425269514e-01
2.372881355932203451e-01
2.372881355932203451e-01
2.372881355932203451e-01
2.372881355932203451e-01
2.372881355932203451e-01
2.372881355932203451e-01
2.372881355932203451e-01
2.372881355932203451e-01
2.372881355932203451e-01
2.372881355932203451e-01
2.372881355932203451e-01
2.372881355932203451e-01
2.326656394453004706e-01
2.326656394453004706e-01
2.335901386748844843e-01
2.345146379044683871e-01
2.354391371340524008e-01
2.363636363636363313e-01
2.372881355932203451e-01
2.372881355932203451e-01
2.372881355932203451e-01
2.372881355932203451e-01
2.372881355932203451e-01
2.372881355932203451e-01
2.372881355932203451e-01
2.372881355932203451e-01
2.372881355932203451e-01
2.357473035439137110e-01
2.357473035439137110e-01
2.365177195685670142e-01
2.372881355932203451e-01
2.372881355932203451e-01
2.372881355932203451e-01
2.372881355932203451e-01
2.372881355932203451e-01
2.372881355932203451e-01
3.898305084745762872e-01
3.836671802773497508e-01
3.821263482280431445e-01
3.636363636363636465e-01
3.636363636363636465e-01
3.636363636363636465e-01
3.605546995377503783e-01
3.620955315870569846e-01
3.636363636363636465e-01
3.697996918335901273e-01
3.713405238828967891e-01
3.805855161787365382e-01
3.805855161787365382e-01
3.821263482280431445e-01
2.511556240369799964e-01
2.542372881355932090e-01
2.989214175654853478e-01
3.451463790446841484e-01
3.466872110939907548e-01
3.513097072419106293e-01
3.605546995377503783e-01
3.713405238828967891e-01
3.759630200308166637e-01
3.836671802773497508e-01
3.913713405238828935e-01
3.975346687211093744e-01
3.975346687211093744e-01
3.944530046224961617e-01
3.882896764252696253e-01
3.790446841294298763e-01
3.682588597842835210e-01
3.620955315870569846e-01
3.543913713405238974e-01
3.451463790446841484e-01
2.342064714946070769e-01
2.126348228043143385e-01
9.044684129429891861e-01
8.597842835130971029e-01
8.736517719568567264e-01
9.029275808936826353e-01
3.821263482280431445e-01
3.620955315870569846e-01
3.559322033898305038e-01
2.619414483821263517e-01
2.573189522342064772e-01
4.006163328197226425e-01
3.235747303543913822e-01
3.235747303543913822e-01
3.235747303543913822e-01
2.434514637904468537e-01
3.204930662557781140e-01
3.204930662557781140e-01
3.204930662557781140e-01
3.204930662557781140e-01
2.357473035439137110e-01
2.357473035439137110e-01
2.357473035439137110e-01
2.357473035439137110e-01
2.372881355932203451e-01
2.372881355932203451e-01
2.342064714946070769e-01
2.311248073959938365e-01
2.295839753466872024e-01
2.295839753466872024e-01
2.295839753466872024e-01
2.295839753466872024e-01
2.295839753466872024e-01
2.280431432973805961e-01
2.249614791987673279e-01
2.234206471494607216e-01
2.187981510015408193e-01
2.157164869029275789e-01
2.126348228043143385e-01
2.080123266563944640e-01
2.049306625577811958e-01
2.003081664098613213e-01
1.956856702619414468e-01
1.941448382126348127e-01
1.864406779661016977e-01
1.848998459167950636e-01
1.818181818181818232e-01
1.787365177195685551e-01
1.787365177195685551e-01
1.818181818181818232e-01
1.802773497688751891e-01
1.833590138674884573e-01
1.895223420647149382e-01
1.972265023112480808e-01
2.064714946070878299e-01
2.110939907550077044e-01
2.187981510015408193e-01
2.265023112480739620e-01
2.342064714946070769e-01
2.419106317411402196e-01
2.465331278890600941e-01
2.496147919876733345e-01
2.511556240369799964e-01
2.526964560862866027e-01
2.526964560862866027e-01
2.526964560862866027e-01
2.526964560862866027e-01
2.526964560862866027e-01
2.542372881355932090e-01
2.526964560862866027e-01
2.557781201848998709e-01
2.557781201848998709e-01
2.573189522342064772e-01
2.557781201848998709e-01
2.557781201848998709e-01
2.573189522342064772e-01
2.573189522342064772e-01
2.573189522342064772e-01
2.573189522342064772e-01
2.573189522342064772e-01
2.588597842835130836e-01
2.588597842835130836e-01
2.573189522342064772e-01
2.573189522342064772e-01
2.573189522342064772e-01
2.557781201848998709e-01
2.542372881355932090e-01
2.542372881355932090e-01
2.542372881355932090e-01
2.526964560862866027e-01
2.526964560862866027e-01
2.526964560862866027e-01
2.526964560862866027e-01
2.526964560862866027e-01
2.526964560862866027e-01
2.526964560862866027e-01
2.526964560862866027e-01
2.526964560862866027e-01
2.526964560862866027e-01
2.526964560862866027e-01
2.526964560862866027e-01
2.526964560862866027e-01
2.526964560862866027e-01
2.526964560862866027e-01
2.542372881355932090e-01
2.542372881355932090e-01
2.542372881355932090e-01
2.542372881355932090e-01
2.542372881355932090e-01
2.557781201848998709e-01
2.557781201848998709e-01
2.557781201848998709e-01
2.557781201848998709e-01
2.557781201848998709e-01
2.557781201848998709e-01
2.542372881355932090e-01
2.526964560862866027e-01
2.542372881355932090e-01
2.557781201848998709e-01
2.604006163328197454e-01
2.604006163328197454e-01
2.573189522342064772e-01
2.557781201848998709e-01
2.511556240369799964e-01
2.480739599383667282e-01
2.449922958397534600e-01
2.449922958397534600e-01
2.449922958397534600e-01
2.480739599383667282e-01
2.511556240369799964e-01
2.557781201848998709e-01
2.557781201848998709e-01
2.588597842835130836e-01
2.588597842835130836e-01
2.588597842835130836e-01
2.604006163328197454e-01
2.588597842835130836e-01
2.588597842835130836e-01
2.588597842835130836e-01
2.588597842835130836e-01
2.604006163328197454e-01
2.573189522342064772e-01
2.573189522342064772e-01
2.573189522342064772e-01
2.573189522342064772e-01
2.588597842835130836e-01
2.619414483821263517e-01
2.573189522342064772e-01
2.526964560862866027e-01
2.419106317411402196e-01
2.126348228043143385e-01
9.383667180277349695e-01
8.551617873651772284e-01
8.551617873651772284e-01
9.013867488443759735e-01
9.522342064714945931e-01
2.973805855161787415e-01
2.912172573189522606e-01
2.788906009244992434e-01
2.711864406779661008e-01
2.634822804314329581e-01
2.557781201848998709e-01
2.511556240369799964e-01
2.496147919876733345e-01
2.496147919876733345e-01
2.480739599383667282e-01
2.465331278890600941e-01
2.449922958397534600e-01
2.449922958397534600e-01
2.465331278890600941e-01
2.465331278890600941e-01
2.465331278890600941e-01
2.465331278890600941e-01
2.449922958397534600e-01
2.434514637904468537e-01
2.434514637904468537e-01
2.419106317411402196e-01
2.419106317411402196e-01
2.419106317411402196e-01
2.419106317411402196e-01
2.388289676425269514e-01
2.357473035439137110e-01
2.326656394453004706e-01
2.326656394453004706e-01
2.311248073959938365e-01
2.280431432973805961e-01
2.249614791987673279e-01
2.218798151001540875e-01
2.187981510015408193e-01
2.141756548536209448e-01
2.110939907550077044e-01
2.080123266563944640e-01
2.018489984591679554e-01
1.972265023112480808e-01
1.941448382126348127e-01
1.910631741140215722e-01
1.910631741140215722e-01
1.910631741140215722e-01
1.910631741140215722e-01
1.910631741140215722e-01
1.956856702619414468e-01
2.003081664098613213e-01
2.080123266563944640e-01
2.141756548536209448e-01
2.218798151001540875e-01
2.265023112480739620e-01
2.342064714946070769e-01
2.449922958397534600e-01
2.480739599383667282e-01
2.511556240369799964e-01
2.557781201848998709e-01
2.573189522342064772e-01
2.604006163328197454e-01
2.619414483821263517e-01
2.619414483821263517e-01
2.619414483821263517e-01
2.634822804314329581e-01
2.634822804314329581e-01
2.634822804314329581e-01
2.634822804314329581e-01
2.634822804314329581e-01
2.634822804314329581e-01
2.634822804314329581e-01
2.634822804314329581e-01
2.634822804314329581e-01
2.650231124807396199e-01
2.650231124807396199e-01
2.665639445300462262e-01
2.650231124807396199e-01
2.650231124807396199e-01
2.634822804314329581e-01
2.634822804314329581e-01
2.619414483821263517e-01
2.619414483821263517e-01
2.619414483821263517e-01
2.604006163328197454e-01
2.604006163328197454e-01
2.604006163328197454e-01
2.588597842835130836e-01
2.588597842835130836e-01
2.588597842835130836e-01
2.573189522342064772e-01
2.573189522342064772e-01
2.573189522342064772e-01
2.573189522342064772e-01
2.557781201848998709e-01
2.557781201848998709e-01
2.557781201848998709e-01
2.557781201848998709e-01
2.557781201848998709e-01
2.557781201848998709e-01
2.557781201848998709e-01
2.557781201848998709e-01
2.573189522342064772e-01
2.604006163328197454e-01
2.604006163328197454e-01
2.634822804314329581e-01
2.634822804314329581e-01
2.634822804314329581e-01
2.634822804314329581e-01
2.650231124807396199e-01
2.650231124807396199e-01
2.650231124807396199e-01
2.619414483821263517e-01
2.588597842835130836e-01
2.573189522342064772e-01
2.588597842835130836e-01
2.619414483821263517e-01
2.634822804314329581e-01
2.634822804314329581e-01
2.573189522342064772e-01
2.557781201848998709e-01
2.542372881355932090e-01
2.526964560862866027e-01
2.511556240369799964e-01
2.511556240369799964e-01
2.511556240369799964e-01
2.526964560862866027e-01
2.557781201848998709e-01
2.588597842835130836e-01
2.604006163328197454e-01
2.588597842835130836e-01
2.588597842835130836e-01
2.573189522342064772e-01
2.557781201848998709e-01
2.557781201848998709e-01
2.557781201848998709e-01
2.557781201848998709e-01
2.542372881355932090e-01
2.542372881355932090e-01
2.542372881355932090e-01
2.526964560862866027e-01
2.496147919876733345e-01
2.496147919876733345e-01
2.434514637904468537e-01
2.419106317411402196e-01
2.449922958397534600e-01
2.326656394453004706e-01
2.203389830508474534e-01
9.229583975346686842e-01
8.613251155624036537e-01
8.644067796610169774e-01
9.029275808936826353e-01
9.553158705701078057e-01
2.927580893682588670e-01
2.835130970724191179e-01
2.696456086286594944e-01
2.588597842835130836e-01
2.511556240369799964e-01
2.449922958397534600e-01
2.419106317411402196e-01
2.372881355932203451e-01
2.372881355932203451e-01
2.388289676425269514e-01
2.388289676425269514e-01
2.388289676425269514e-01
2.388289676425269514e-01
2.388289676425269514e-01
2.388289676425269514e-01
2.372881355932203451e-01
2.372881355932203451e-01
2.342064714946070769e-01
2.326656394453004706e-01
2.311248073959938365e-01
2.280431432973805961e-01
2.280431432973805961e-01
2.265023112480739620e-01
2.265023112480739620e-01
2.265023112480739620e-01
2.249614791987673279e-01
2.249614791987673279e-01
2.249614791987673279e-01
2.234206471494607216e-01
2.172573189522342130e-01
2.157164869029275789e-01
2.095531587057010703e-01
2.080123266563944640e-01
2.033898305084745894e-01
1.972265023112480808e-01
1.926040061633282063e-01
1.802773497688751891e-01
1.741140215716486805e-01
1.694915254237288060e-01
1.710323574730354401e-01
1.833590138674884573e-01
1.833590138674884573e-01
1.833590138674884573e-01
1.833590138674884573e-01
1.864406779661016977e-01
1.910631741140215722e-01
1.956856702619414468e-01
2.003081664098613213e-01
2.080123266563944640e-01
2.157164869029275789e-01
2.234206471494607216e-01
2.280431432973805961e-01
2.357473035439137110e-01
2.403697996918335855e-01
2.434514637904468537e-01
2.449922958397534600e-01
2.465331278890600941e-01
2.465331278890600941e-01
2.480739599383667282e-01
2.480739599383667282e-01
2.480739599383667282e-01
2.496147919876733345e-01
2.511556240369799964e-01
2.511556240369799964e-01
2.511556240369799964e-01
2.511556240369799964e-01
2.511556240369799964e-01
2.511556240369799964e-01
2.511556240369799964e-01
2.511556240369799964e-01
2.511556240369799964e-01
2.526964560862866027e-01
2.526964560862866027e-01
2.511556240369799964e-01
2.511556240369799964e-01
2.511556240369799964e-01
2.511556240369799964e-01
2.511556240369799964e-01
2.496147919876733345e-01
2.496147919876733345e-01
2.496147919876733345e-01
2.480739599383667282e-01
2.480739599383667282e-01
2.480739599383667282e-01
2.480739599383667282e-01
2.480739599383667282e-01
2.480739599383667282e-01
2.465331278890600941e-01
2.465331278890600941e-01
2.465331278890600941e-01
2.465331278890600941e-01
2.465331278890600941e-01
2.465331278890600941e-01
2.449922958397534600e-01
2.449922958397534600e-01
2.449922958397534600e-01
2.449922958397534600e-01
2.434514637904468537e-01
2.434514637904468537e-01
2.434514637904468537e-01
2.419106317411402196e-01
2.419106317411402196e-01
2.449922958397534600e-01
2.449922958397534600e-01
2.465331278890600941e-01
2.465331278890600941e-01
2.449922958397534600e-01
2.434514637904468537e-01
2.434514637904468537e-01
2.465331278890600941e-01
2.511556240369799964e-01
2.542372881355932090e-01
2.557781201848998709e-01
2.511556240369799964e-01
2.449922958397534600e-01
2.434514637904468537e-01
2.419106317411402196e-01
2.388289676425269514e-01
2.372881355932203451e-01
2.357473035439137110e-01
2.357473035439137110e-01
2.419106317411402196e-01
2.449922958397534600e-01
2.465331278890600941e-01
2.480739599383667282e-01
2.465331278890600941e-01
2.449922958397534600e-01
2.449922958397534600e-01
2.449922958397534600e-01
2.449922958397534600e-01
2.449922958397534600e-01
2.449922958397534600e-01
2.449922958397534600e-01
2.449922958397534600e-01
2.449922958397534600e-01
2.434514637904468537e-01
2.434514637904468537e-01
2.388289676425269514e-01
2.372881355932203451e-01
2.372881355932203451e-01
2.280431432973805961e-01
2.018489984591679554e-01
9.214175654853621333e-01
8.567026194144837792e-01
8.628659476117103155e-01
9.044684129429891861e-01
9.568567026194144676e-01
2.881355932203389925e-01
2.342064714946070769e-01
2.372881355932203451e-01
2.372881355932203451e-01
2.372881355932203451e-01
2.403697996918335855e-01
2.419106317411402196e-01
3.451463790446841484e-01
3.497688751926040229e-01
3.559322033898305038e-01
3.636363636363636465e-01
3.728813559322033955e-01
3.821263482280431445e-01
3.898305084745762872e-01
3.944530046224961617e-01
3.975346687211093744e-01
3.959938366718027680e-01
3.913713405238828935e-01
3.805855161787365382e-01
3.713405238828967891e-01
3.667180277349769146e-01
3.559322033898305038e-01
3.466872110939907548e-01
3.420647149460708802e-01
2.681047765793528326e-01
1.879815100154083318e-01
1.864406779661016977e-01
3.482280431432973611e-01
3.466872110939907548e-01
3.436055469953774866e-01
3.451463790446841484e-01
3.466872110939907548e-01
3.436055469953774866e-01
3.420647149460708802e-01
3.436055469953774866e-01
3.466872110939907548e-01
3.605546995377503783e-01
3.667180277349769146e-01
3.605546995377503783e-01
3.620955315870569846e-01
3.590138674884437719e-01
1.340523882896764163e-01
1.355932203389830504e-01
1.402157164869029249e-01
1.448382126348227994e-01
1.510015408320493080e-01
1.571648690292758166e-01
1.617873651771956911e-01
1.694915254237288060e-01
1.756548536209553146e-01
1.848998459167950636e-01
1.926040061633282063e-01
2.018489984591679554e-01
2.110939907550077044e-01
2.157164869029275789e-01
2.218798151001540875e-01
2.265023112480739620e-01
2.295839753466872024e-01
2.326656394453004706e-01
2.372881355932203451e-01
2.419106317411402196e-01
2.419106317411402196e-01
2.434514637904468537e-01
2.434514637904468537e-01
2.434514637904468537e-01
2.419106317411402196e-01
2.419106317411402196e-01
2.419106317411402196e-01
2.388289676425269514e-01
2.372881355932203451e-01
2.372881355932203451e-01
2.372881355932203451e-01
2.372881355932203451e-01
2.326656394453004706e-01
2.326656394453004706e-01
2.311248073959938365e-01
2.295839753466872024e-01
2.311248073959938365e-01
2.311248073959938365e-01
2.311248073959938365e-01
2.326656394453004706e-01
2.326656394453004706e-01
2.326656394453004706e-01
2.342064714946070769e-01
2.357473035439137110e-01
2.372881355932203451e-01
2.372881355932203451e-01
2.372881355932203451e-01
2.372881355932203451e-01
2.403697996918335855e-01
2.419106317411402196e-01
2.419106317411402196e-01
2.419106317411402196e-01
2.434514637904468537e-01
2.434514637904468537e-01
2.434514637904468537e-01
2.449922958397534600e-01
2.465331278890600941e-01
2.465331278890600941e-01
2.449922958397534600e-01
2.449922958397534600e-01
2.434514637904468537e-01
2.434514637904468537e-01
2.434514637904468537e-01
2.434514637904468537e-01
2.419106317411402196e-01
2.419106317411402196e-01
2.419106317411402196e-01
2.419106317411402196e-01
2.419106317411402196e-01
2.419106317411402196e-01
2.388289676425269514e-01
2.372881355932203451e-01
2.372881355932203451e-01
2.372881355932203451e-01
2.357473035439137110e-01
2.357473035439137110e-01
2.372881355932203451e-01
2.372881355932203451e-01
2.419106317411402196e-01
2.419106317411402196e-01
2.419106317411402196e-01
2.434514637904468537e-01
2.449922958397534600e-01
2.465331278890600941e-01
2.496147919876733345e-01
2.496147919876733345e-01
2.511556240369799964e-01
2.511556240369799964e-01
2.526964560862866027e-01
2.526964560862866027e-01
2.542372881355932090e-01
2.542372881355932090e-01
2.542372881355932090e-01
2.542372881355932090e-01
2.542372881355932090e-01
2.542372881355932090e-01
2.480739599383667282e-01
2.234206471494607216e-01
1.956856702619414468e-01
1.664098613251155656e-01
1.355932203389830504e-01
1.833590138674884573e-01
2.742681047765793689e-01
4.252696456086286769e-01
5.932203389830508211e-01
6.779661016949152241e-01
7.750385208012326999e-01
7.149460708782742202e-01
6.163328197226501937e-01
5.100154083204930799e-01
4.175654853620955342e-01
3.420647149460708802e-01
2.835130970724191179e-01
2.634822804314329581e-01
2.465331278890600941e-01
2.311248073959938365e-01
2.295839753466872024e-01
2.249614791987673279e-01
2.218798151001540875e-01
2.203389830508474534e-01
2.172573189522342130e-01
2.141756548536209448e-01
2.095531587057010703e-01
2.095531587057010703e-01
2.064714946070878299e-01
2.064714946070878299e-01
2.049306625577811958e-01
2.033898305084745894e-01
2.018489984591679554e-01
2.003081664098613213e-01
1.972265023112480808e-01
1.941448382126348127e-01
1.910631741140215722e-01
1.895223420647149382e-01
1.864406779661016977e-01
1.787365177195685551e-01
1.756548536209553146e-01
1.694915254237288060e-01
1.633281972265022974e-01
1.556240369799691825e-01
1.494607087827426739e-01
1.432973805855161653e-01
1.371340523882896845e-01
1.309707241910631759e-01
1.248073959938366673e-01
1.217257318952234268e-01
1.217257318952234268e-01
1.217257318952234268e-01
1.232665639445300471e-01
1.232665639445300471e-01
1.263482280431433014e-01
1.294298921417565418e-01
1.325115562403698100e-01
1.386748844375962908e-01
1.463790446841294335e-01
1.525423728813559421e-01
1.617873651771956911e-01
1.710323574730354401e-01
1.802773497688751891e-01
1.895223420647149382e-01
1.972265023112480808e-01
2.049306625577811958e-01
2.110939907550077044e-01
2.157164869029275789e-01
2.203389830508474534e-01
2.249614791987673279e-01
2.280431432973805961e-01
2.295839753466872024e-01
2.295839753466872024e-01
2.295839753466872024e-01
2.311248073959938365e-01
2.311248073959938365e-01
2.311248073959938365e-01
2.311248073959938365e-01
2.311248073959938365e-01
2.326656394453004706e-01
2.326656394453004706e-01
2.326656394453004706e-01
2.311248073959938365e-01
2.295839753466872024e-01
2.280431432973805961e-01
2.265023112480739620e-01
2.249614791987673279e-01
2.249614791987673279e-01
2.249614791987673279e-01
2.249614791987673279e-01
2.249614791987673279e-01
2.249614791987673279e-01
2.249614791987673279e-01
2.249614791987673279e-01
2.249614791987673279e-01
2.249614791987673279e-01
2.249614791987673279e-01
2.249614791987673279e-01
2.249614791987673279e-01
2.265023112480739620e-01
2.280431432973805961e-01
2.280431432973805961e-01
2.311248073959938365e-01
2.311248073959938365e-01
2.303543913713405333e-01
2.295839753466872024e-01
2.311248073959938365e-01
2.311248073959938365e-01
2.311248073959938365e-01
2.311248073959938365e-01
2.311248073959938365e-01
2.265023112480739620e-01
2.249614791987673279e-01
2.234206471494607216e-01
2.249614791987673279e-01
2.249614791987673279e-01
2.265023112480739620e-01
2.265023112480739620e-01
2.280431432973805961e-01
2.280431432973805961e-01
2.311248073959938365e-01
2.311248073959938365e-01
2.326656394453004706e-01
2.326656394453004706e-01
2.326656394453004706e-01
2.372881355932203451e-01
2.372881355932203451e-01
2.372881355932203451e-01
2.372881355932203451e-01
2.388289676425269514e-01
2.419106317411402196e-01
2.419106317411402196e-01
2.419106317411402196e-01
2.434514637904468537e-01
2.434514637904468537e-01
2.449922958397534600e-01
2.449922958397534600e-01
2.449922958397534600e-01
2.372881355932203451e-01
2.141756548536209448e-01
1.879815100154083318e-01
1.602465331278890570e-01
1.432973805855161653e-01
1.617873651771956911e-01
2.865947611710323306e-01
4.191063174114021406e-01
5.624036979969183614e-01
6.579352850539291753e-01
7.380585516178737038e-01
6.825885978428350986e-01
5.901386748844376084e-01
4.869029275808937074e-01
3.990755007704160362e-01
3.281972265023112567e-01
2.681047765793528326e-01
2.480739599383667282e-01
2.311248073959938365e-01
2.234206471494607216e-01
2.203389830508474534e-01
2.172573189522342130e-01
2.141756548536209448e-01
2.126348228043143385e-01
2.110939907550077044e-01
2.095531587057010703e-01
2.064714946070878299e-01
2.049306625577811958e-01
2.033898305084745894e-01
2.033898305084745894e-01
2.018489984591679554e-01
2.003081664098613213e-01
1.987673343605546872e-01
1.956856702619414468e-01
1.941448382126348127e-01
1.910631741140215722e-01
1.895223420647149382e-01
1.848998459167950636e-01
1.802773497688751891e-01
1.741140215716486805e-01
1.710323574730354401e-01
1.664098613251155656e-01
1.602465331278890570e-01
1.540832049306625484e-01
1.463790446841294335e-01
1.479198767334360676e-01
1.417565485362095590e-01
5.624036979969183614e-01
5.562403697996918250e-01
9.845916795069337146e-01
5.500770416024652887e-01
9.830508474576271638e-01
9.876733436055470383e-01
9.969183359013867873e-01
1.000000000000000000e+00
1.309707241910631759e-01
1.325115562403698100e-01
1.402157164869029249e-01
1.479198767334360676e-01
1.556240369799691825e-01
1.664098613251155656e-01
1.756548536209553146e-01
1.848998459167950636e-01
1.972265023112480808e-01
2.049306625577811958e-01
2.126348228043143385e-01
2.187981510015408193e-01
2.234206471494607216e-01
2.280431432973805961e-01
2.311248073959938365e-01
2.326656394453004706e-01
2.342064714946070769e-01
2.357473035439137110e-01
2.372881355932203451e-01
2.372881355932203451e-01
2.372881355932203451e-01
2.372881355932203451e-01
2.372881355932203451e-01
2.372881355932203451e-01
2.388289676425269514e-01
2.388289676425269514e-01
2.372881355932203451e-01
2.372881355932203451e-01
2.357473035439137110e-01
2.357473035439137110e-01
2.326656394453004706e-01
2.326656394453004706e-01
2.326656394453004706e-01
2.311248073959938365e-01
2.311248073959938365e-01
2.311248073959938365e-01
2.311248073959938365e-01
2.311248073959938365e-01
2.311248073959938365e-01
2.311248073959938365e-01
2.326656394453004706e-01
2.326656394453004706e-01
2.326656394453004706e-01
2.326656394453004706e-01
2.326656394453004706e-01
2.326656394453004706e-01
2.326656394453004706e-01
2.311248073959938365e-01
2.311248073959938365e-01
2.311248073959938365e-01
2.280431432973805961e-01
2.249614791987673279e-01
2.249614791987673279e-01
2.249614791987673279e-01
2.295839753466872024e-01
2.311248073959938365e-01
2.326656394453004706e-01
2.326656394453004706e-01
2.349768875192604078e-01
2.372881355932203451e-01
2.372881355932203451e-01
2.372881355932203451e-01
2.372881355932203451e-01
2.388289676425269514e-01
2.388289676425269514e-01
2.419106317411402196e-01
2.419106317411402196e-01
2.419106317411402196e-01
2.419106317411402196e-01
2.434514637904468537e-01
2.434514637904468537e-01
2.434514637904468537e-01
2.449922958397534600e-01
2.449922958397534600e-01
2.465331278890600941e-01
2.465331278890600941e-01
2.449922958397534600e-01
2.434514637904468537e-01
2.172573189522342130e-01
1.926040061633282063e-01
1.633281972265022974e-01
1.355932203389830504e-01
1.864406779661016977e-01
2.773497688751925816e-01
4.129429892141756597e-01
5.670261941448382359e-01
6.779661016949152241e-01
7.657935285053929508e-01
7.010785824345145967e-01
5.963020030816641448e-01
4.899845916795069201e-01
4.006163328197226425e-01
3.281972265023112567e-01
2.727272727272727071e-01
2.480739599383667282e-01
2.372881355932203451e-01
2.295839753466872024e-01
2.249614791987673279e-01
2.234206471494607216e-01
2.234206471494607216e-01
2.218798151001540875e-01
2.218798151001540875e-01
2.172573189522342130e-01
2.157164869029275789e-01
2.141756548536209448e-01
2.141756548536209448e-01
2.110939907550077044e-01
2.095531587057010703e-01
2.064714946070878299e-01
2.064714946070878299e-01
2.033898305084745894e-01
2.003081664098613213e-01
1.972265023112480808e-01
1.941448382126348127e-01
1.926040061633282063e-01
1.864406779661016977e-01
1.833590138674884573e-01
1.756548536209553146e-01
1.710323574730354401e-01
1.648690292758089315e-01
1.571648690292758166e-01
1.510015408320493080e-01
1.417565485362095590e-01
1.355932203389830504e-01
1.263482280431433014e-01
1.248073959938366673e-01
1.186440677966101725e-01
1.171032357473035385e-01
1.171032357473035385e-01
1.217257318952234268e-01
1.217257318952234268e-01
1.248073959938366673e-01
1.278890600924499354e-01
1.355932203389830504e-01
1.432973805855161653e-01
1.525423728813559421e-01
1.617873651771956911e-01
1.710323574730354401e-01
1.818181818181818232e-01
1.910631741140215722e-01
2.018489984591679554e-01
2.095531587057010703e-01
2.203389830508474534e-01
2.265023112480739620e-01
2.295839753466872024e-01
2.326656394453004706e-01
2.372881355932203451e-01
2.419106317411402196e-01
2.465331278890600941e-01
2.465331278890600941e-01
2.480739599383667282e-01
2.480739599383667282e-01
2.480739599383667282e-01
2.465331278890600941e-01
2.465331278890600941e-01
2.449922958397534600e-01
2.449922958397534600e-01
2.434514637904468537e-01
2.434514637904468537e-01
2.434514637904468537e-01
2.419106317411402196e-01
2.419106317411402196e-01
2.419106317411402196e-01
2.372881355932203451e-01
2.372881355932203451e-01
2.372881355932203451e-01
2.372881355932203451e-01
2.372881355932203451e-01
2.434514637904468537e-01
3.466872110939907548e-01
3.513097072419106293e-01
3.590138674884437719e-01
3.667180277349769146e-01
3.744221879815100018e-01
3.836671802773497508e-01
3.913713405238828935e-01
3.959938366718027680e-01
3.990755007704160362e-01
3.959938366718027680e-01
3.913713405238828935e-01
3.821263482280431445e-01
3.713405238828967891e-01
3.636363636363636465e-01
3.559322033898305038e-01
3.497688751926040229e-01
3.451463790446841484e-01
3.436055469953774866e-01
2.542372881355932090e-01
2.526964560862866027e-01
2.557781201848998709e-01
3.528505392912172356e-01
3.559322033898305038e-01
3.543913713405238974e-01
3.636363636363636465e-01
3.543913713405238974e-01
3.451463790446841484e-01
3.636363636363636465e-01
3.636363636363636465e-01
3.543913713405238974e-01
3.451463790446841484e-01
3.713405238828967891e-01
3.728813559322033955e-01
3.805855161787365382e-01
3.805855161787365382e-01
2.681047765793528326e-01
2.696456086286594944e-01
2.711864406779661008e-01
2.711864406779661008e-01
2.711864406779661008e-01
2.711864406779661008e-01
2.711864406779661008e-01
2.727272727272727071e-01
2.727272727272727071e-01
2.727272727272727071e-01
2.727272727272727071e-01
2.742681047765793689e-01
2.758089368258859753e-01
2.634822804314329581e-01
2.449922958397534600e-01
2.003081664098613213e-01
1.725731895223420742e-01
1.510015408320493080e-01
7.734976887519260380e-01
3.805855161787365382e-01
2.095531587057010703e-01
2.573189522342064772e-01
3.204930662557781140e-01
3.405238828967642739e-01
3.297380585516178630e-01
3.097072419106317587e-01
2.927580893682588670e-01
2.804314329738058498e-01
2.758089368258859753e-01
2.711864406779661008e-01
2.711864406779661008e-01
2.711864406779661008e-01
2.696456086286594944e-01
2.696456086286594944e-01
2.696456086286594944e-01
2.681047765793528326e-01
2.665639445300462262e-01
2.665639445300462262e-01
2.650231124807396199e-01
2.650231124807396199e-01
2.650231124807396199e-01
2.634822804314329581e-01
2.619414483821263517e-01
2.619414483821263517e-01
2.604006163328197454e-01
2.588597842835130836e-01
2.588597842835130836e-01
2.557781201848998709e-01
2.542372881355932090e-01
2.526964560862866027e-01
2.511556240369799964e-01
2.496147919876733345e-01
2.465331278890600941e-01
2.465331278890600941e-01
2.434514637904468537e-01
2.372881355932203451e-01
2.311248073959938365e-01
2.295839753466872024e-01
2.249614791987673279e-01
2.234206471494607216e-01
2.203389830508474534e-01
2.157164869029275789e-01
2.157164869029275789e-01
2.126348228043143385e-01
2.126348228043143385e-01
2.157164869029275789e-01
2.172573189522342130e-01
2.187981510015408193e-01
2.218798151001540875e-01
2.234206471494607216e-01
2.265023112480739620e-01
2.311248073959938365e-01
2.357473035439137110e-01
2.372881355932203451e-01
2.434514637904468537e-01
2.449922958397534600e-01
2.480739599383667282e-01
2.526964560862866027e-01
2.557781201848998709e-01
2.557781201848998709e-01
2.542372881355932090e-01
2.542372881355932090e-01
2.526964560862866027e-01
2.526964560862866027e-01
2.557781201848998709e-01
2.573189522342064772e-01
2.604006163328197454e-01
2.604006163328197454e-01
2.588597842835130836e-01
2.588597842835130836e-01
2.588597842835130836e-01
2.588597842835130836e-01
2.573189522342064772e-01
2.573189522342064772e-01
2.557781201848998709e-01
2.557781201848998709e-01
2.557781201848998709e-01
2.542372881355932090e-01
2.542372881355932090e-01
2.542372881355932090e-01
2.534668721109399336e-01
2.526964560862866027e-01
2.526964560862866027e-01
2.526964560862866027e-01
2.511556240369799964e-01
2.511556240369799964e-01
2.511556240369799964e-01
2.526964560862866027e-01
2.526964560862866027e-01
2.526964560862866027e-01
2.526964560862866027e-01
2.526964560862866027e-01
2.526964560862866027e-01
2.526964560862866027e-01
2.526964560862866027e-01
2.526964560862866027e-01
2.526964560862866027e-01
2.542372881355932090e-01
2.557781201848998709e-01
2.557781201848998709e-01
2.557781201848998709e-01
2.542372881355932090e-01
2.542372881355932090e-01
2.526964560862866027e-01
2.526964560862866027e-01
2.511556240369799964e-01
2.511556240369799964e-01
2.496147919876733345e-01
2.496147919876733345e-01
2.480739599383667282e-01
2.465331278890600941e-01
2.434514637904468537e-01
2.419106317411402196e-01
2.419106317411402196e-01
2.372881355932203451e-01
2.372881355932203451e-01
2.357473035439137110e-01
2.372881355932203451e-01
2.372881355932203451e-01
2.403697996918335855e-01
2.434514637904468537e-01
2.480739599383667282e-01
2.526964560862866027e-01
2.557781201848998709e-01
2.588597842835130836e-01
2.588597842835130836e-01
2.588597842835130836e-01
2.588597842835130836e-01
2.619414483821263517e-01
2.634822804314329581e-01
2.665639445300462262e-01
2.665639445300462262e-01
2.665639445300462262e-01
2.665639445300462262e-01
2.665639445300462262e-01
2.665639445300462262e-01
2.665639445300462262e-01
2.665639445300462262e-01
2.634822804314329581e-01
2.496147919876733345e-01
2.234206471494607216e-01
1.818181818181818232e-01
1.787365177195685551e-01
7.996918335901386232e-01
7.611710323574730763e-01
2.773497688751926094e-02
2.203389830508474534e-01
2.804314329738058498e-01
2.865947611710323306e-01
3.405238828967642739e-01
3.204930662557781140e-01
2.989214175654853478e-01
2.804314329738058498e-01
2.711864406779661008e-01
2.665639445300462262e-01
2.650231124807396199e-01
2.650231124807396199e-01
2.650231124807396199e-01
2.650231124807396199e-01
2.634822804314329581e-01
2.634822804314329581e-01
2.634822804314329581e-01
2.619414483821263517e-01
2.619414483821263517e-01
2.588597842835130836e-01
2.588597842835130836e-01
2.573189522342064772e-01
2.557781201848998709e-01
2.557781201848998709e-01
2.542372881355932090e-01
2.526964560862866027e-01
2.511556240369799964e-01
2.511556240369799964e-01
2.496147919876733345e-01
2.480739599383667282e-01
2.465331278890600941e-01
2.465331278890600941e-01
2.434514637904468537e-01
2.434514637904468537e-01
2.388289676425269514e-01
2.357473035439137110e-01
2.311248073959938365e-01
2.295839753466872024e-01
2.234206471494607216e-01
2.203389830508474534e-01
2.172573189522342130e-01
2.126348228043143385e-01
2.110939907550077044e-01
2.095531587057010703e-01
2.095531587057010703e-01
2.095531587057010703e-01
2.110939907550077044e-01
2.126348228043143385e-01
2.126348228043143385e-01
2.157164869029275789e-01
2.172573189522342130e-01
2.234206471494607216e-01
2.249614791987673279e-01
2.326656394453004706e-01
2.372881355932203451e-01
2.434514637904468537e-01
2.434514637904468537e-01
2.449922958397534600e-01
2.465331278890600941e-01
2.480739599383667282e-01
2.511556240369799964e-01
2.526964560862866027e-01
2.573189522342064772e-01
2.588597842835130836e-01
2.619414483821263517e-01
2.619414483821263517e-01
2.604006163328197454e-01
2.604006163328197454e-01
2.604006163328197454e-01
2.604006163328197454e-01
2.604006163328197454e-01
2.604006163328197454e-01
2.588597842835130836e-01
2.588597842835130836e-01
2.588597842835130836e-01
2.588597842835130836e-01
2.588597842835130836e-01
2.588597842835130836e-01
2.604006163328197454e-01
2.604006163328197454e-01
2.604006163328197454e-01
2.604006163328197454e-01
2.604006163328197454e-01
2.604006163328197454e-01
2.604006163328197454e-01
2.604006163328197454e-01
2.604006163328197454e-01
2.604006163328197454e-01
2.604006163328197454e-01
2.604006163328197454e-01
2.604006163328197454e-01
2.604006163328197454e-01
2.604006163328197454e-01
2.604006163328197454e-01
2.604006163328197454e-01
2.604006163328197454e-01
2.619414483821263517e-01
2.619414483821263517e-01
2.604006163328197454e-01
2.604006163328197454e-01
2.604006163328197454e-01
2.604006163328197454e-01
2.604006163328197454e-01
2.588597842835130836e-01
2.588597842835130836e-01
2.588597842835130836e-01
2.588597842835130836e-01
2.588597842835130836e-01
2.573189522342064772e-01
2.557781201848998709e-01
2.557781201848998709e-01
2.542372881355932090e-01
2.526964560862866027e-01
2.526964560862866027e-01
2.496147919876733345e-01
2.496147919876733345e-01
2.465331278890600941e-01
2.434514637904468537e-01
2.419106317411402196e-01
2.365177195685670142e-01
2.311248073959938365e-01
2.311248073959938365e-01
2.295839753466872024e-01
2.311248073959938365e-01
2.311248073959938365e-01
2.326656394453004706e-01
2.326656394453004706e-01
2.372881355932203451e-01
2.403697996918335855e-01
2.480739599383667282e-01
2.526964560862866027e-01
2.557781201848998709e-01
2.573189522342064772e-01
2.573189522342064772e-01
2.588597842835130836e-01
2.588597842835130836e-01
2.573189522342064772e-01
2.573189522342064772e-01
2.573189522342064772e-01
2.573189522342064772e-01
2.573189522342064772e-01
2.573189522342064772e-01
2.573189522342064772e-01
2.573189522342064772e-01
2.573189522342064772e-01
2.557781201848998709e-01
2.388289676425269514e-01
2.126348228043143385e-01
1.848998459167950636e-01
1.741140215716486805e-01
7.966101694915254106e-01
7.519260400616333273e-01
6.317411402157165068e-02
2.403697996918335855e-01
2.727272727272727071e-01
2.958397534668721351e-01
3.312788906009245249e-01
3.112480739599383650e-01
