4.949999999999999956e-01
4.949999999999999956e-01
4.893019480519480435e-01
4.836038961038960915e-01
4.779058441558441950e-01
4.722077922077921874e-01
4.665097402597402354e-01
4.608116883116883389e-01
4.551136363636363869e-01
4.494155844155844348e-01
4.437175324675324273e-01
4.380194805194805308e-01
4.323214285714286342e-01
4.266233766233766267e-01
4.209253246753246192e-01
4.152272727272727226e-01
4.095292207792208261e-01
4.038311688311688186e-01
3.981331168831168665e-01
3.924350649350649700e-01
3.867370129870130180e-01
3.810389610389610660e-01
3.753409090909090584e-01
3.696428571428571619e-01
3.639448051948052654e-01
3.582467532467532578e-01
3.525487012987012503e-01
3.468506493506493538e-01
3.411525974025974572e-01
3.354545454545454497e-01
3.297564935064934977e-01
3.240584415584415456e-01
3.183603896103896491e-01
3.126623376623376971e-01
3.069642857142856895e-01
3.012662337662337930e-01
2.955681818181818410e-01
2.898701298701298890e-01
2.841720779220779369e-01
2.784740259740259849e-01
2.727759740259740329e-01
2.670779220779220808e-01
2.613798701298701288e-01
2.556818181818181768e-01
2.499837662337662525e-01
2.442857142857143005e-01
2.385876623376623484e-01
2.328896103896104242e-01
2.271915584415584721e-01
2.214935064935065201e-01
2.157954545454545681e-01
2.100974025974026160e-01
2.043993506493506640e-01
1.987012987012987120e-01
1.930032467532467877e-01
1.873051948051948357e-01
1.816071428571428836e-01
1.759090909090909316e-01
1.702110389610389518e-01
1.645129870129870275e-01
1.588149350649351310e-01
1.531168831168831512e-01
1.474188311688311714e-01
1.417207792207792472e-01
1.360227272727273506e-01
1.303246753246753431e-01
1.246266233766233772e-01
1.189285714285714529e-01
1.132305194805195425e-01
1.075324675324675627e-01
1.018344155844155829e-01
9.613636363636367255e-02
9.043831168831176215e-02
8.474025974025976848e-02
7.904220779220778870e-02
7.334415584415587830e-02
6.764610389610396790e-02
6.194805194805198117e-02
5.625000000000000139e-02
5.649999999999999467e-01
5.649999999999999467e-01
5.662500000000000311e-01
5.062499999999999778e-01
5.062499999999999778e-01
5.062499999999999778e-01
5.062499999999999778e-01
5.062499999999999778e-01
5.062499999999999778e-01
5.062499999999999778e-01
5.062499999999999778e-01
5.062499999999999778e-01
5.062499999999999778e-01
5.062499999999999778e-01
5.062499999999999778e-01
5.062499999999999778e-01
5.062499999999999778e-01
5.062499999999999778e-01
5.062499999999999778e-01
5.062499999999999778e-01
5.062499999999999778e-01
5.062499999999999778e-01
5.062499999999999778e-01
5.062499999999999778e-01
5.062499999999999778e-01
5.062499999999999778e-01
5.062499999999999778e-01
5.062499999999999778e-01
5.062499999999999778e-01
5.062499999999999778e-01
5.062499999999999778e-01
5.062499999999999778e-01
5.062499999999999778e-01
5.062499999999999778e-01
5.062499999999999778e-01
5.062499999999999778e-01
5.062499999999999778e-01
5.062499999999999778e-01
5.050000000000000044e-01
5.662500000000000311e-01
5.662500000000000311e-01
5.649999999999999467e-01
6.837499999999999689e-01
4.475000000000000089e-01
1.900000000000000022e-01
1.900000000000000022e-01
3.724999999999999978e-01
3.724999999999999978e-01
7.049999999999999600e-01
7.049999999999999600e-01
7.075000000000000178e-01
3.750000000000000000e-01
4.487499999999999822e-01
4.487499999999999822e-01
7.075000000000000178e-01
7.075000000000000178e-01
7.075000000000000178e-01
3.762499999999999734e-01
3.762499999999999734e-01
3.762499999999999734e-01
3.762499999999999734e-01
1.625000000000000056e-01
1.637500000000000067e-01
1.650000000000000078e-01
7.049999999999999600e-01
7.049999999999999600e-01
7.049999999999999600e-01
7.049999999999999600e-01
7.049999999999999600e-01
3.750000000000000000e-01
3.750000000000000000e-01
7.025000000000000133e-01
7.025000000000000133e-01
3.737500000000000266e-01
3.737500000000000266e-01
3.737500000000000266e-01
3.737500000000000266e-01
3.737500000000000266e-01
3.737500000000000266e-01
5.381249999999999645e-01
7.025000000000000133e-01
7.025000000000000133e-01
7.025000000000000133e-01
4.499999999999999833e-02
6.999999999999999556e-01
6.999999999999999556e-01
3.724999999999999978e-01
3.724999999999999978e-01
3.737500000000000266e-01
6.999999999999999556e-01
3.750000000000000000e-01
5.000000000000000278e-02
3.762499999999999734e-01
7.025000000000000133e-01
3.775000000000000022e-01
5.249999999999999806e-02
3.800000000000000044e-01
5.999999999999999778e-02
3.825000000000000067e-01
7.049999999999999600e-01
3.812499999999999778e-01
5.750000000000000250e-02
5.374999999999999917e-02
5.000000000000000278e-02
4.499999999999999833e-02
4.250000000000000305e-02
3.724999999999999978e-01
3.724999999999999978e-01
3.724999999999999978e-01
7.025000000000000133e-01
3.500000000000000333e-02
2.750000000000000014e-02
2.500000000000000139e-02
6.662500000000000089e-01
6.324999999999999512e-01
1.012500000000000067e-01
1.449999999999999900e-01
1.787499999999999922e-01
2.737499999999999933e-01
3.474999999999999756e-01
6.424999999999999600e-01
3.262499999999999845e-01
2.300000000000000100e-01
1.737499999999999878e-01
1.049999999999999961e-01
8.250000000000000389e-02
7.199999999999999734e-01
5.750000000000000250e-02
5.124999999999999695e-02
4.750000000000000056e-02
7.125000000000000222e-01
7.125000000000000222e-01
7.125000000000000222e-01
4.499999999999999833e-02
4.374999999999999722e-02
3.775000000000000022e-01
3.775000000000000022e-01
3.775000000000000022e-01
7.099999999999999645e-01
3.775000000000000022e-01
3.775000000000000022e-01
7.099999999999999645e-01
7.099999999999999645e-01
3.775000000000000022e-01
3.775000000000000022e-01
3.775000000000000022e-01
7.075000000000000178e-01
7.075000000000000178e-01
7.075000000000000178e-01
3.762499999999999734e-01
3.762499999999999734e-01
7.075000000000000178e-01
7.075000000000000178e-01
3.775000000000000022e-01
7.075000000000000178e-01
7.075000000000000178e-01
4.750000000000000056e-02
4.750000000000000056e-02
7.062500000000000444e-01
7.049999999999999600e-01
7.049999999999999600e-01
5.500000000000000028e-02
3.800000000000000044e-01
7.025000000000000133e-01
3.800000000000000044e-01
6.375000000000000111e-02
7.000000000000000666e-02
7.374999999999999611e-02
3.825000000000000067e-01
8.000000000000000167e-02
8.250000000000000389e-02
8.749999999999999445e-02
6.824999999999999956e-01
8.999999999999999667e-02
3.850000000000000089e-01
3.837499999999999800e-01
3.825000000000000067e-01
3.825000000000000067e-01
8.250000000000000389e-02
7.749999999999999944e-02
7.499999999999999722e-02
6.625000000000000333e-02
6.500000000000000222e-02
6.250000000000000000e-02
5.874999999999999667e-02
3.712500000000000244e-01
5.249999999999999806e-02
5.124999999999999695e-02
3.699999999999999956e-01
6.949999999999999512e-01
6.975000000000000089e-01
6.975000000000000089e-01
6.975000000000000089e-01
4.750000000000000056e-02
3.737500000000000266e-01
3.737500000000000266e-01
3.737500000000000266e-01
3.737500000000000266e-01
7.037499999999999867e-01
3.737500000000000266e-01
4.499999999999999833e-02
4.499999999999999833e-02
4.499999999999999833e-02
3.724999999999999978e-01
3.724999999999999978e-01
6.999999999999999556e-01
6.999999999999999556e-01
6.999999999999999556e-01
6.999999999999999556e-01
6.999999999999999556e-01
6.999999999999999556e-01
6.999999999999999556e-01
3.712500000000000244e-01
3.712500000000000244e-01
6.975000000000000089e-01
6.975000000000000089e-01
6.975000000000000089e-01
6.975000000000000089e-01
3.699999999999999956e-01
3.699999999999999956e-01
6.949999999999999512e-01
3.699999999999999956e-01
3.699999999999999956e-01
3.699999999999999956e-01
3.699999999999999956e-01
3.699999999999999956e-01
6.949999999999999512e-01
6.949999999999999512e-01
3.699999999999999956e-01
4.499999999999999833e-02
4.499999999999999833e-02
4.250000000000000305e-02
4.250000000000000305e-02
3.674999999999999933e-01
6.949999999999999512e-01
6.949999999999999512e-01
6.949999999999999512e-01
6.987499999999999822e-01
3.687500000000000222e-01
3.687500000000000222e-01
6.975000000000000089e-01
6.975000000000000089e-01
3.699999999999999956e-01
4.250000000000000305e-02
4.250000000000000305e-02
6.999999999999999556e-01
6.999999999999999556e-01
6.999999999999999556e-01
3.724999999999999978e-01
3.724999999999999978e-01
6.999999999999999556e-01
6.999999999999999556e-01
3.737500000000000266e-01
3.737500000000000266e-01
4.750000000000000056e-02
4.499999999999999833e-02
3.712500000000000244e-01
3.712500000000000244e-01
4.499999999999999833e-02
4.499999999999999833e-02
4.499999999999999833e-02
4.499999999999999833e-02
3.724999999999999978e-01
3.724999999999999978e-01
3.724999999999999978e-01
4.499999999999999833e-02
3.712500000000000244e-01
6.975000000000000089e-01
6.975000000000000089e-01
4.250000000000000305e-02
3.687500000000000222e-01
3.674999999999999933e-01
4.000000000000000083e-02
4.250000000000000305e-02
4.374999999999999722e-02
4.499999999999999833e-02
4.374999999999999722e-02
3.699999999999999956e-01
3.699999999999999956e-01
6.925000000000000044e-01
3.712500000000000244e-01
6.925000000000000044e-01
3.724999999999999978e-01
3.724999999999999978e-01
5.500000000000000028e-02
5.750000000000000250e-02
3.775000000000000022e-01
3.787499999999999756e-01
3.787499999999999756e-01
5.625000000000000139e-02
5.374999999999999917e-02
4.499999999999999833e-02
4.250000000000000305e-02
3.699999999999999956e-01
3.699999999999999956e-01
3.699999999999999956e-01
3.699999999999999956e-01
3.699999999999999956e-01
3.250000000000000111e-02
2.999999999999999889e-02
3.449999999999999734e-01
6.550000000000000266e-01
6.137500000000000178e-01
1.100000000000000006e-01
1.437499999999999889e-01
1.925000000000000044e-01
2.999999999999999889e-01
5.799999999999999600e-01
6.637499999999999512e-01
2.912500000000000089e-01
2.112499999999999933e-01
1.499999999999999944e-01
9.875000000000000444e-02
8.000000000000000167e-02
6.375000000000000111e-02
5.500000000000000028e-02
3.750000000000000000e-01
3.737500000000000266e-01
7.049999999999999600e-01
8.362500000000000488e-01
7.049999999999999600e-01
8.349999999999999645e-01
9.675000000000000266e-01
9.675000000000000266e-01
9.662500000000000533e-01
9.662500000000000533e-01
9.675000000000000266e-01
9.675000000000000266e-01
9.687500000000000000e-01
9.737500000000000044e-01
9.749999999999999778e-01
9.762499999999999512e-01
3.874999999999999972e-02
4.000000000000000083e-02
6.975000000000000089e-01
3.674999999999999933e-01
6.999999999999999556e-01
9.687500000000000000e-01
9.725000000000000311e-01
9.725000000000000311e-01
9.675000000000000266e-01
9.649999999999999689e-01
7.025000000000000133e-01
7.025000000000000133e-01
9.649999999999999689e-01
9.649999999999999689e-01
9.662500000000000533e-01
9.687500000000000000e-01
9.887500000000000178e-01
9.787500000000000089e-01
8.462499999999999467e-01
3.775000000000000022e-01
6.250000000000000000e-02
3.762499999999999734e-01
6.625000000000000333e-02
3.762499999999999734e-01
9.849999999999999867e-01
9.875000000000000444e-01
9.849999999999999867e-01
6.774999999999999911e-01
6.774999999999999911e-01
6.750000000000000444e-01
6.737499999999999600e-01
6.737499999999999600e-01
6.737499999999999600e-01
6.737499999999999600e-01
6.750000000000000444e-01
9.849999999999999867e-01
9.875000000000000444e-01
9.899999999999999911e-01
6.774999999999999911e-01
6.800000000000000488e-01
6.824999999999999956e-01
6.850000000000000533e-01
6.862500000000000266e-01
6.875000000000000000e-01
6.887499999999999734e-01
6.912500000000000311e-01
9.887500000000000178e-01
9.899999999999999911e-01
9.925000000000000488e-01
4.750000000000000056e-02
3.699999999999999956e-01
3.699999999999999956e-01
3.699999999999999956e-01
4.750000000000000056e-02
9.887500000000000178e-01
9.875000000000000444e-01
9.887500000000000178e-01
6.999999999999999556e-01
6.987499999999999822e-01
6.999999999999999556e-01
6.999999999999999556e-01
6.987499999999999822e-01
8.375000000000000222e-01
6.949999999999999512e-01
6.949999999999999512e-01
9.899999999999999911e-01
9.925000000000000488e-01
9.925000000000000488e-01
6.899999999999999467e-01
6.912500000000000311e-01
6.899999999999999467e-01
6.899999999999999467e-01
6.887499999999999734e-01
6.887499999999999734e-01
6.899999999999999467e-01
9.799999999999999822e-01
9.912499999999999645e-01
9.925000000000000488e-01
9.975000000000000533e-01
3.250000000000000111e-02
3.250000000000000111e-02
3.250000000000000111e-02
3.250000000000000111e-02
6.887499999999999734e-01
9.987500000000000266e-01
9.925000000000000488e-01
9.862499999999999600e-01
9.787500000000000089e-01
9.687500000000000000e-01
9.649999999999999689e-01
6.912500000000000311e-01
3.587500000000000133e-01
3.574999999999999845e-01
8.362500000000000488e-01
9.812499999999999556e-01
9.837500000000000133e-01
9.787500000000000089e-01
9.775000000000000355e-01
8.349999999999999645e-01
6.925000000000000044e-01
9.787500000000000089e-01
9.799999999999999822e-01
9.987500000000000266e-01
9.899999999999999911e-01
9.825000000000000400e-01
8.487500000000000044e-01
3.649999999999999911e-01
3.649999999999999911e-01
3.649999999999999911e-01
3.749999999999999861e-02
3.674999999999999933e-01
6.949999999999999512e-01
6.949999999999999512e-01
3.687500000000000222e-01
4.250000000000000305e-02
4.125000000000000194e-02
4.125000000000000194e-02
3.749999999999999861e-02
3.662500000000000200e-01
3.749999999999999861e-02
3.749999999999999861e-02
3.624999999999999750e-02
3.500000000000000333e-02
3.749999999999999861e-02
4.000000000000000083e-02
3.687500000000000222e-01
3.687500000000000222e-01
4.250000000000000305e-02
4.250000000000000305e-02
3.699999999999999956e-01
3.699999999999999956e-01
4.125000000000000194e-02
3.874999999999999972e-02
3.749999999999999861e-02
6.899999999999999467e-01
3.649999999999999911e-01
3.874999999999999972e-02
3.874999999999999972e-02
3.874999999999999972e-02
4.499999999999999833e-02
6.850000000000000533e-01
6.875000000000000000e-01
5.249999999999999806e-02
6.850000000000000533e-01
6.912500000000000311e-01
3.712500000000000244e-01
3.724999999999999978e-01
5.374999999999999917e-02
5.750000000000000250e-02
5.999999999999999778e-02
5.874999999999999667e-02
5.374999999999999917e-02
4.875000000000000167e-02
6.925000000000000044e-01
4.499999999999999833e-02
4.125000000000000194e-02
3.662500000000000200e-01
6.949999999999999512e-01
3.674999999999999933e-01
6.975000000000000089e-01
3.749999999999999861e-02
2.999999999999999889e-02
2.000000000000000042e-02
6.612500000000000044e-01
6.287500000000000311e-01
8.500000000000000611e-02
1.199999999999999956e-01
1.524999999999999967e-01
2.412499999999999922e-01
3.512500000000000067e-01
6.287500000000000311e-01
6.637499999999999512e-01
2.462499999999999967e-01
1.900000000000000022e-01
1.287500000000000033e-01
9.124999999999999778e-02
7.099999999999999645e-01
3.800000000000000044e-01
4.624999999999999944e-02
4.374999999999999722e-02
6.949999999999999512e-01
6.937499999999999778e-01
6.949999999999999512e-01
6.987499999999999822e-01
6.999999999999999556e-01
3.687500000000000222e-01
3.624999999999999750e-02
3.662500000000000200e-01
3.662500000000000200e-01
3.662500000000000200e-01
3.662500000000000200e-01
3.662500000000000200e-01
3.662500000000000200e-01
3.674999999999999933e-01
6.999999999999999556e-01
6.999999999999999556e-01
6.999999999999999556e-01
5.750000000000000250e-02
5.750000000000000250e-02
5.750000000000000250e-02
5.750000000000000250e-02
5.750000000000000250e-02
5.750000000000000250e-02
1.799999999999999933e-01
1.774999999999999911e-01
1.737499999999999878e-01
1.675000000000000100e-01
1.675000000000000100e-01
1.675000000000000100e-01
1.675000000000000100e-01
1.675000000000000100e-01
1.675000000000000100e-01
1.675000000000000100e-01
1.662500000000000089e-01
1.712500000000000133e-01
1.724999999999999867e-01
1.762499999999999900e-01
5.249999999999999806e-02
5.500000000000000028e-02
9.750000000000000333e-02
1.387500000000000122e-01
1.437499999999999889e-01
1.512499999999999956e-01
1.575000000000000011e-01
1.625000000000000056e-01
1.687500000000000111e-01
1.762499999999999900e-01
1.824999999999999956e-01
1.849999999999999978e-01
1.837499999999999967e-01
1.799999999999999933e-01
1.762499999999999900e-01
1.737499999999999878e-01
1.662500000000000089e-01
1.600000000000000033e-01
1.499999999999999944e-01
1.449999999999999900e-01
1.412499999999999867e-01
1.412499999999999867e-01
6.899999999999999467e-01
3.699999999999999956e-01
6.925000000000000044e-01
1.862499999999999989e-01
1.625000000000000056e-01
1.650000000000000078e-01
1.650000000000000078e-01
1.600000000000000033e-01
1.600000000000000033e-01
1.400000000000000133e-01
1.600000000000000033e-01
1.400000000000000133e-01
1.600000000000000033e-01
1.612500000000000044e-01
1.424999999999999878e-01
1.512499999999999956e-01
1.400000000000000133e-01
6.999999999999999556e-01
5.249999999999999806e-02
5.249999999999999806e-02
7.037499999999999867e-01
7.025000000000000133e-01
7.025000000000000133e-01
5.249999999999999806e-02
5.249999999999999806e-02
7.025000000000000133e-01
7.025000000000000133e-01
7.025000000000000133e-01
7.025000000000000133e-01
5.000000000000000278e-02
5.000000000000000278e-02
5.000000000000000278e-02
5.000000000000000278e-02
5.000000000000000278e-02
5.000000000000000278e-02
3.750000000000000000e-01
6.962500000000000355e-01
6.937499999999999778e-01
6.937499999999999778e-01
3.724999999999999978e-01
6.975000000000000089e-01
6.999999999999999556e-01
6.999999999999999556e-01
6.999999999999999556e-01
3.750000000000000000e-01
5.000000000000000278e-02
5.000000000000000278e-02
7.025000000000000133e-01
7.025000000000000133e-01
7.025000000000000133e-01
5.249999999999999806e-02
5.249999999999999806e-02
5.249999999999999806e-02
5.124999999999999695e-02
5.000000000000000278e-02
3.762499999999999734e-01
5.000000000000000278e-02
5.000000000000000278e-02
5.000000000000000278e-02
3.775000000000000022e-01
3.775000000000000022e-01
3.775000000000000022e-01
7.025000000000000133e-01
7.025000000000000133e-01
3.775000000000000022e-01
3.775000000000000022e-01
5.249999999999999806e-02
7.025000000000000133e-01
7.025000000000000133e-01
7.025000000000000133e-01
7.025000000000000133e-01
7.025000000000000133e-01
7.025000000000000133e-01
3.750000000000000000e-01
4.750000000000000056e-02
3.737500000000000266e-01
6.999999999999999556e-01
6.999999999999999556e-01
3.724999999999999978e-01
4.499999999999999833e-02
3.712500000000000244e-01
3.712500000000000244e-01
4.499999999999999833e-02
6.949999999999999512e-01
3.687500000000000222e-01
6.949999999999999512e-01
6.949999999999999512e-01
4.499999999999999833e-02
3.724999999999999978e-01
3.737500000000000266e-01
5.249999999999999806e-02
6.999999999999999556e-01
3.762499999999999734e-01
5.249999999999999806e-02
5.500000000000000028e-02
5.750000000000000250e-02
3.812499999999999778e-01
3.825000000000000067e-01
3.837499999999999800e-01
5.874999999999999667e-02
3.837499999999999800e-01
5.750000000000000250e-02
5.500000000000000028e-02
5.124999999999999695e-02
3.775000000000000022e-01
7.049999999999999600e-01
7.049999999999999600e-01
3.762499999999999734e-01
4.750000000000000056e-02
4.750000000000000056e-02
4.499999999999999833e-02
4.250000000000000305e-02
6.800000000000000488e-01
6.612500000000000044e-01
6.387500000000000400e-01
5.999999999999999778e-01
5.574999999999999956e-01
8.250000000000000389e-02
5.462500000000000133e-01
5.875000000000000222e-01
6.762500000000000178e-01
1.912500000000000033e-01
1.487499999999999933e-01
1.112500000000000017e-01
9.500000000000000111e-02
7.275000000000000355e-01
3.975000000000000200e-01
6.625000000000000333e-02
6.250000000000000000e-02
5.750000000000000250e-02
5.750000000000000250e-02
3.837499999999999800e-01
3.825000000000000067e-01
7.099999999999999645e-01
5.249999999999999806e-02
3.800000000000000044e-01
7.075000000000000178e-01
3.787499999999999756e-01
7.062500000000000444e-01
7.049999999999999600e-01
3.775000000000000022e-01
3.775000000000000022e-01
7.087499999999999911e-01
7.099999999999999645e-01
7.112500000000000488e-01
7.125000000000000222e-01
7.125000000000000222e-01
7.112500000000000488e-01
9.812499999999999556e-01
9.825000000000000400e-01
9.837500000000000133e-01
5.500000000000000028e-02
3.825000000000000067e-01
7.099999999999999645e-01
7.099999999999999645e-01
7.125000000000000222e-01
7.099999999999999645e-01
7.099999999999999645e-01
3.837499999999999800e-01
9.862499999999999600e-01
9.849999999999999867e-01
9.862499999999999600e-01
9.837500000000000133e-01
9.675000000000000266e-01
7.087499999999999911e-01
7.062500000000000444e-01
7.037499999999999867e-01
7.012500000000000400e-01
7.037499999999999867e-01
7.012500000000000400e-01
7.025000000000000133e-01
9.737500000000000044e-01
9.837500000000000133e-01
9.849999999999999867e-01
9.849999999999999867e-01
3.737500000000000266e-01
3.737500000000000266e-01
3.737500000000000266e-01
5.999999999999999778e-02
9.875000000000000444e-01
9.862499999999999600e-01
9.862499999999999600e-01
6.999999999999999556e-01
6.999999999999999556e-01
6.999999999999999556e-01
7.012500000000000400e-01
6.999999999999999556e-01
6.999999999999999556e-01
7.025000000000000133e-01
7.062500000000000444e-01
9.899999999999999911e-01
9.899999999999999911e-01
9.925000000000000488e-01
7.087499999999999911e-01
7.087499999999999911e-01
7.112500000000000488e-01
7.112500000000000488e-01
7.087499999999999911e-01
7.099999999999999645e-01
7.099999999999999645e-01
7.112500000000000488e-01
9.887500000000000178e-01
9.899999999999999911e-01
9.925000000000000488e-01
3.812499999999999778e-01
5.500000000000000028e-02
5.500000000000000028e-02
5.500000000000000028e-02
3.800000000000000044e-01
9.875000000000000444e-01
9.875000000000000444e-01
9.862499999999999600e-01
7.062500000000000444e-01
7.062500000000000444e-01
7.087499999999999911e-01
7.087499999999999911e-01
7.087499999999999911e-01
8.425000000000000266e-01
7.075000000000000178e-01
7.087499999999999911e-01
9.887500000000000178e-01
9.912499999999999645e-01
9.925000000000000488e-01
3.787499999999999756e-01
7.062500000000000444e-01
7.087499999999999911e-01
7.075000000000000178e-01
7.062500000000000444e-01
7.099999999999999645e-01
7.099999999999999645e-01
9.799999999999999822e-01
9.899999999999999911e-01
9.912499999999999645e-01
9.949999999999999956e-01
7.075000000000000178e-01
3.812499999999999778e-01
3.812499999999999778e-01
7.075000000000000178e-01
7.112500000000000488e-01
9.975000000000000533e-01
9.937500000000000222e-01
9.862499999999999600e-01
9.787500000000000089e-01
9.687500000000000000e-01
9.662500000000000533e-01
7.125000000000000222e-01
7.099999999999999645e-01
7.099999999999999645e-01
7.099999999999999645e-01
9.887500000000000178e-01
9.899999999999999911e-01
9.887500000000000178e-01
7.099999999999999645e-01
7.099999999999999645e-01
7.112500000000000488e-01
7.112500000000000488e-01
7.112500000000000488e-01
5.162499999999999867e-01
7.099999999999999645e-01
7.125000000000000222e-01
9.887500000000000178e-01
9.937500000000000222e-01
9.937500000000000222e-01
3.825000000000000067e-01
7.112500000000000488e-01
7.125000000000000222e-01
7.099999999999999645e-01
7.099999999999999645e-01
7.112500000000000488e-01
7.112500000000000488e-01
9.899999999999999911e-01
9.899999999999999911e-01
9.937500000000000222e-01
7.049999999999999600e-01
3.787499999999999756e-01
5.249999999999999806e-02
7.037499999999999867e-01
7.062500000000000444e-01
9.649999999999999689e-01
9.687500000000000000e-01
9.762499999999999512e-01
9.812499999999999556e-01
9.887500000000000178e-01
9.937500000000000222e-01
1.000000000000000000e+00
7.112500000000000488e-01
7.099999999999999645e-01
7.149999999999999689e-01
9.987500000000000266e-01
9.925000000000000488e-01
9.862499999999999600e-01
9.799999999999999822e-01
9.725000000000000311e-01
9.662500000000000533e-01
7.149999999999999689e-01
7.125000000000000222e-01
7.112500000000000488e-01
7.099999999999999645e-01
3.837499999999999800e-01
5.374999999999999917e-02
5.000000000000000278e-02
4.750000000000000056e-02
6.787499999999999645e-01
6.562500000000000000e-01
6.274999999999999467e-01
5.899999999999999689e-01
5.450000000000000400e-01
1.087499999999999994e-01
5.437499999999999556e-01
6.099999999999999867e-01
6.949999999999999512e-01
1.875000000000000000e-01
1.562500000000000000e-01
1.187499999999999944e-01
1.074999999999999983e-01
9.249999999999999889e-02
7.749999999999999944e-02
3.987499999999999933e-01
3.950000000000000178e-01
6.625000000000000333e-02
6.500000000000000222e-02
3.912499999999999867e-01
6.250000000000000000e-02
6.250000000000000000e-02
3.887499999999999845e-01
3.887499999999999845e-01
7.175000000000000266e-01
3.887499999999999845e-01
3.887499999999999845e-01
7.175000000000000266e-01
3.900000000000000133e-01
3.900000000000000133e-01
3.912499999999999867e-01
7.175000000000000266e-01
6.250000000000000000e-02
5.874999999999999667e-02
3.887499999999999845e-01
3.887499999999999845e-01
3.887499999999999845e-01
3.887499999999999845e-01
3.887499999999999845e-01
7.149999999999999689e-01
7.149999999999999689e-01
3.887499999999999845e-01
3.887499999999999845e-01
6.250000000000000000e-02
6.250000000000000000e-02
6.250000000000000000e-02
6.250000000000000000e-02
7.125000000000000222e-01
7.125000000000000222e-01
3.887499999999999845e-01
6.500000000000000222e-02
3.887499999999999845e-01
7.099999999999999645e-01
3.875000000000000111e-01
3.862499999999999822e-01
3.875000000000000111e-01
3.862499999999999822e-01
3.850000000000000089e-01
6.975000000000000089e-01
3.837499999999999800e-01
3.837499999999999800e-01
6.925000000000000044e-01
7.000000000000000666e-02
3.800000000000000044e-01
6.899999999999999467e-01
6.925000000000000044e-01
3.800000000000000044e-01
6.500000000000000222e-02
3.787499999999999756e-01
3.787499999999999756e-01
6.975000000000000089e-01
3.787499999999999756e-01
3.800000000000000044e-01
3.800000000000000044e-01
3.800000000000000044e-01
3.800000000000000044e-01
3.800000000000000044e-01
3.812499999999999778e-01
5.750000000000000250e-02
7.075000000000000178e-01
3.837499999999999800e-01
5.999999999999999778e-02
3.850000000000000089e-01
3.862499999999999822e-01
6.250000000000000000e-02
6.250000000000000000e-02
6.250000000000000000e-02
6.250000000000000000e-02
6.250000000000000000e-02
6.250000000000000000e-02
3.862499999999999822e-01
3.862499999999999822e-01
7.125000000000000222e-01
7.125000000000000222e-01
7.125000000000000222e-01
7.125000000000000222e-01
7.125000000000000222e-01
3.862499999999999822e-01
3.862499999999999822e-01
5.999999999999999778e-02
5.999999999999999778e-02
5.999999999999999778e-02
3.850000000000000089e-01
3.850000000000000089e-01
7.099999999999999645e-01
3.837499999999999800e-01
3.837499999999999800e-01
5.750000000000000250e-02
5.750000000000000250e-02
5.750000000000000250e-02
7.075000000000000178e-01
7.075000000000000178e-01
3.812499999999999778e-01
5.500000000000000028e-02
5.500000000000000028e-02
3.800000000000000044e-01
7.049999999999999600e-01
7.049999999999999600e-01
7.049999999999999600e-01
7.049999999999999600e-01
7.049999999999999600e-01
7.049999999999999600e-01
7.049999999999999600e-01
7.049999999999999600e-01
3.787499999999999756e-01
5.249999999999999806e-02
3.800000000000000044e-01
3.800000000000000044e-01
3.800000000000000044e-01
3.800000000000000044e-01
7.075000000000000178e-01
3.812499999999999778e-01
5.500000000000000028e-02
3.825000000000000067e-01
3.825000000000000067e-01
3.825000000000000067e-01
3.825000000000000067e-01
3.825000000000000067e-01
3.825000000000000067e-01
5.750000000000000250e-02
5.750000000000000250e-02
5.750000000000000250e-02
3.837499999999999800e-01
3.837499999999999800e-01
7.099999999999999645e-01
7.099999999999999645e-01
7.099999999999999645e-01
7.099999999999999645e-01
5.750000000000000250e-02
5.750000000000000250e-02
5.750000000000000250e-02
5.374999999999999917e-02
5.999999999999999778e-02
6.124999999999999889e-02
1.437499999999999889e-01
1.474999999999999922e-01
1.562500000000000000e-01
1.600000000000000033e-01
1.662500000000000089e-01
1.737499999999999878e-01
1.799999999999999933e-01
1.837499999999999967e-01
1.849999999999999978e-01
1.824999999999999956e-01
1.812499999999999944e-01
1.737499999999999878e-01
1.662500000000000089e-01
1.600000000000000033e-01
1.524999999999999967e-01
1.462499999999999911e-01
1.437499999999999889e-01
1.400000000000000133e-01
5.500000000000000028e-02
5.249999999999999806e-02
1.837499999999999967e-01
1.625000000000000056e-01
1.012500000000000067e-01
7.000000000000000666e-02
1.575000000000000011e-01
1.600000000000000033e-01
1.749999999999999889e-01
1.625000000000000056e-01
1.600000000000000033e-01
1.612500000000000044e-01
1.612500000000000044e-01
1.575000000000000011e-01
1.612500000000000044e-01
1.687500000000000111e-01
1.749999999999999889e-01
3.912499999999999867e-01
6.500000000000000222e-02
2.268749999999999933e-01
3.887499999999999845e-01
5.999999999999999778e-02
5.374999999999999917e-02
4.125000000000000194e-02
2.000000000000000042e-02
6.562500000000000000e-01
6.524999999999999689e-01
6.075000000000000400e-01
6.124999999999999889e-02
9.249999999999999889e-02
2.149999999999999967e-01
2.687499999999999889e-01
3.012500000000000178e-01
3.012500000000000178e-01
2.587499999999999800e-01
2.049999999999999878e-01
1.562500000000000000e-01
1.250000000000000000e-01
9.375000000000000000e-02
7.499999999999999722e-02
3.900000000000000133e-01
7.187500000000000000e-01
7.199999999999999734e-01
5.124999999999999695e-02
5.000000000000000278e-02
3.850000000000000089e-01
5.000000000000000278e-02
4.624999999999999944e-02
4.499999999999999833e-02
4.499999999999999833e-02
4.499999999999999833e-02
3.825000000000000067e-01
3.825000000000000067e-01
4.750000000000000056e-02
4.750000000000000056e-02
7.175000000000000266e-01
7.175000000000000266e-01
3.825000000000000067e-01
3.831249999999999933e-01
3.837499999999999800e-01
5.249999999999999806e-02
5.249999999999999806e-02
5.249999999999999806e-02
3.850000000000000089e-01
5.750000000000000250e-02
5.124999999999999695e-02
4.624999999999999944e-02
3.749999999999999861e-02
3.125000000000000000e-02
3.712500000000000244e-01
2.750000000000000014e-02
2.375000000000000028e-02
2.000000000000000042e-02
1.625000000000000056e-02
1.499999999999999944e-02
3.587500000000000133e-01
1.000000000000000021e-02
6.250000000000000347e-03
2.500000000000000052e-03
3.487500000000000044e-01
3.499999999999999778e-01
2.500000000000000052e-03
3.499999999999999778e-01
7.499999999999999722e-03
8.750000000000000833e-03
1.250000000000000069e-02
3.549999999999999822e-01
1.750000000000000167e-02
2.000000000000000042e-02
2.500000000000000139e-02
2.875000000000000125e-02
3.125000000000000000e-02
4.000000000000000083e-02
4.499999999999999833e-02
4.499999999999999833e-02
3.762499999999999734e-01
7.025000000000000133e-01
3.800000000000000044e-01
5.500000000000000028e-02
5.750000000000000250e-02
5.874999999999999667e-02
6.375000000000000111e-02
6.875000000000000555e-02
3.900000000000000133e-01
7.112500000000000488e-01
7.125000000000000222e-01
7.000000000000000666e-02
3.925000000000000155e-01
3.925000000000000155e-01
7.149999999999999689e-01
7.149999999999999689e-01
3.912499999999999867e-01
6.750000000000000444e-02
6.750000000000000444e-02
6.750000000000000444e-02
3.900000000000000133e-01
7.125000000000000222e-01
7.125000000000000222e-01
6.500000000000000222e-02
6.500000000000000222e-02
6.500000000000000222e-02
7.125000000000000222e-01
7.125000000000000222e-01
7.125000000000000222e-01
3.875000000000000111e-01
3.875000000000000111e-01
7.125000000000000222e-01
3.862499999999999822e-01
5.999999999999999778e-02
5.999999999999999778e-02
7.099999999999999645e-01
3.837499999999999800e-01
3.837499999999999800e-01
7.099999999999999645e-01
5.500000000000000028e-02
5.750000000000000250e-02
6.124999999999999889e-02
6.750000000000000444e-02
3.887499999999999845e-01
7.099999999999999645e-01
3.900000000000000133e-01
6.750000000000000444e-02
6.750000000000000444e-02
3.887499999999999845e-01
6.500000000000000222e-02
6.500000000000000222e-02
3.875000000000000111e-01
3.875000000000000111e-01
7.125000000000000222e-01
3.875000000000000111e-01
7.125000000000000222e-01
3.862499999999999822e-01
6.250000000000000000e-02
6.875000000000000555e-02
7.374999999999999611e-02
7.749999999999999944e-02
8.000000000000000167e-02
3.962499999999999911e-01
3.962499999999999911e-01
7.749999999999999944e-02
7.749999999999999944e-02
3.950000000000000178e-01
7.125000000000000222e-01
7.125000000000000222e-01
3.937499999999999889e-01
3.937499999999999889e-01
7.624999999999999833e-02
7.875000000000000056e-02
8.000000000000000167e-02
3.962499999999999911e-01
3.962499999999999911e-01
3.962499999999999911e-01
3.950000000000000178e-01
3.950000000000000178e-01
7.749999999999999944e-02
7.749999999999999944e-02
7.624999999999999833e-02
7.749999999999999944e-02
7.749999999999999944e-02
7.499999999999999722e-02
3.925000000000000155e-01
3.912499999999999867e-01
7.000000000000000666e-02
6.750000000000000444e-02
6.500000000000000222e-02
5.999999999999999778e-02
5.500000000000000028e-02
5.249999999999999806e-02
3.837499999999999800e-01
7.125000000000000222e-01
3.850000000000000089e-01
3.862499999999999822e-01
6.500000000000000222e-02
6.875000000000000555e-02
3.937499999999999889e-01
3.962499999999999911e-01
7.499999999999999722e-02
7.499999999999999722e-02
3.962499999999999911e-01
7.249999999999999500e-02
3.950000000000000178e-01
3.950000000000000178e-01
7.175000000000000266e-01
7.175000000000000266e-01
3.937499999999999889e-01
3.937499999999999889e-01
3.950000000000000178e-01
7.124999999999999389e-02
6.500000000000000222e-02
5.374999999999999917e-02
3.624999999999999750e-02
6.524999999999999689e-01
6.474999999999999645e-01
6.162499999999999645e-01
6.124999999999999889e-02
7.499999999999999722e-02
5.787499999999999867e-01
5.999999999999999778e-01
2.700000000000000178e-01
2.775000000000000244e-01
2.362499999999999878e-01
1.987500000000000100e-01
1.600000000000000033e-01
1.287500000000000033e-01
9.875000000000000444e-02
7.499999999999999722e-02
5.999999999999999778e-02
5.625000000000000139e-02
5.249999999999999806e-02
3.850000000000000089e-01
3.850000000000000089e-01
3.850000000000000089e-01
5.500000000000000028e-02
3.850000000000000089e-01
5.249999999999999806e-02
4.875000000000000167e-02
3.800000000000000044e-01
7.125000000000000222e-01
3.787499999999999756e-01
4.499999999999999833e-02
4.499999999999999833e-02
3.775000000000000022e-01
3.775000000000000022e-01
3.775000000000000022e-01
7.125000000000000222e-01
7.125000000000000222e-01
7.125000000000000222e-01
7.125000000000000222e-01
4.250000000000000305e-02
4.250000000000000305e-02
7.099999999999999645e-01
7.099999999999999645e-01
3.762499999999999734e-01
3.762499999999999734e-01
3.775000000000000022e-01
4.374999999999999722e-02
4.000000000000000083e-02
3.125000000000000000e-02
2.500000000000000139e-02
2.125000000000000153e-02
1.874999999999999931e-02
3.587500000000000133e-01
3.574999999999999845e-01
3.562500000000000111e-01
1.375000000000000007e-02
1.250000000000000069e-02
6.899999999999999467e-01
1.250000000000000026e-03
0.000000000000000000e+00
3.425000000000000266e-01
2.500000000000000052e-03
5.000000000000000104e-03
3.449999999999999734e-01
3.462500000000000022e-01
1.250000000000000069e-02
3.487500000000000044e-01
3.499999999999999778e-01
2.000000000000000042e-02
2.750000000000000014e-02
3.624999999999999750e-02
4.250000000000000305e-02
4.624999999999999944e-02
5.000000000000000278e-02
5.249999999999999806e-02
3.750000000000000000e-01
5.500000000000000028e-02
3.787499999999999756e-01
5.874999999999999667e-02
6.500000000000000222e-02
3.850000000000000089e-01
6.625000000000000333e-02
6.124999999999999889e-02
5.750000000000000250e-02
5.625000000000000139e-02
5.374999999999999917e-02
5.374999999999999917e-02
5.249999999999999806e-02
5.374999999999999917e-02
5.750000000000000250e-02
5.999999999999999778e-02
3.850000000000000089e-01
3.850000000000000089e-01
3.850000000000000089e-01
3.850000000000000089e-01
5.999999999999999778e-02
3.850000000000000089e-01
7.099999999999999645e-01
7.099999999999999645e-01
5.750000000000000250e-02
3.812499999999999778e-01
3.800000000000000044e-01
3.800000000000000044e-01
5.249999999999999806e-02
7.049999999999999600e-01
7.049999999999999600e-01
3.800000000000000044e-01
5.500000000000000028e-02
5.124999999999999695e-02
4.750000000000000056e-02
4.374999999999999722e-02
4.499999999999999833e-02
5.124999999999999695e-02
5.374999999999999917e-02
5.750000000000000250e-02
5.750000000000000250e-02
5.999999999999999778e-02
6.250000000000000000e-02
6.500000000000000222e-02
3.850000000000000089e-01
3.850000000000000089e-01
6.500000000000000222e-02
6.500000000000000222e-02
6.500000000000000222e-02
3.837499999999999800e-01
3.837499999999999800e-01
3.837499999999999800e-01
3.837499999999999800e-01
3.837499999999999800e-01
3.837499999999999800e-01
3.825000000000000067e-01
5.625000000000000139e-02
5.374999999999999917e-02
3.787499999999999756e-01
5.625000000000000139e-02
7.049999999999999600e-01
3.812499999999999778e-01
5.750000000000000250e-02
5.999999999999999778e-02
6.500000000000000222e-02
7.000000000000000666e-02
7.249999999999999500e-02
7.025000000000000133e-01
7.025000000000000133e-01
7.025000000000000133e-01
3.887499999999999845e-01
7.749999999999999944e-02
3.900000000000000133e-01
3.900000000000000133e-01
7.749999999999999944e-02
3.887499999999999845e-01
3.887499999999999845e-01
3.887499999999999845e-01
7.025000000000000133e-01
7.025000000000000133e-01
7.025000000000000133e-01
7.749999999999999944e-02
7.749999999999999944e-02
7.749999999999999944e-02
3.887499999999999845e-01
7.374999999999999611e-02
7.000000000000000666e-02
6.975000000000000089e-01
6.975000000000000089e-01
5.368749999999999911e-01
3.762499999999999734e-01
5.999999999999999778e-02
5.999999999999999778e-02
5.750000000000000250e-02
5.500000000000000028e-02
5.374999999999999917e-02
3.712500000000000244e-01
3.737500000000000266e-01
5.999999999999999778e-02
6.750000000000000444e-02
6.875000000000000555e-02
7.499999999999999722e-02
7.749999999999999944e-02
3.937499999999999889e-01
3.950000000000000178e-01
8.500000000000000611e-02
3.950000000000000178e-01
3.937499999999999889e-01
3.937499999999999889e-01
3.937499999999999889e-01
7.049999999999999600e-01
7.049999999999999600e-01
3.925000000000000155e-01
3.925000000000000155e-01
7.875000000000000056e-02
7.374999999999999611e-02
6.750000000000000444e-02
5.249999999999999806e-02
4.125000000000000194e-02
6.187500000000000222e-01
5.775000000000000133e-01
8.624999999999999334e-02
1.100000000000000006e-01
5.412500000000000089e-01
5.787499999999999867e-01
3.175000000000000044e-01
3.150000000000000022e-01
2.700000000000000178e-01
2.225000000000000033e-01
1.824999999999999956e-01
1.449999999999999900e-01
1.087499999999999994e-01
8.749999999999999445e-02
3.900000000000000133e-01
3.900000000000000133e-01
7.075000000000000178e-01
7.075000000000000178e-01
3.900000000000000133e-01
3.900000000000000133e-01
3.887499999999999845e-01
7.000000000000000666e-02
3.875000000000000111e-01
3.862499999999999822e-01
7.075000000000000178e-01
3.850000000000000089e-01
3.837499999999999800e-01
5.999999999999999778e-02
6.124999999999999889e-02
6.250000000000000000e-02
6.250000000000000000e-02
7.049999999999999600e-01
3.825000000000000067e-01
3.825000000000000067e-01
7.049999999999999600e-01
3.812499999999999778e-01
3.812499999999999778e-01
5.750000000000000250e-02
7.075000000000000178e-01
3.812499999999999778e-01
3.812499999999999778e-01
5.249999999999999806e-02
3.775000000000000022e-01
3.762499999999999734e-01
4.374999999999999722e-02
3.500000000000000333e-02
2.875000000000000125e-02
2.125000000000000153e-02
1.874999999999999931e-02
1.375000000000000007e-02
8.750000000000000833e-03
5.000000000000000104e-03
3.462500000000000022e-01
3.449999999999999734e-01
3.437500000000000000e-01
6.899999999999999467e-01
3.437500000000000000e-01
3.437500000000000000e-01
3.437500000000000000e-01
3.749999999999999861e-03
7.499999999999999722e-03
1.499999999999999944e-02
2.125000000000000153e-02
2.750000000000000014e-02
3.599999999999999867e-01
5.750000000000000250e-02
5.625000000000000139e-02
5.625000000000000139e-02
5.750000000000000250e-02
5.874999999999999667e-02
6.375000000000000111e-02
1.462499999999999911e-01
1.487499999999999933e-01
1.524999999999999967e-01
1.587500000000000022e-01
1.675000000000000100e-01
1.749999999999999889e-01
1.812499999999999944e-01
1.849999999999999978e-01
1.862499999999999989e-01
1.837499999999999967e-01
1.787499999999999922e-01
1.712500000000000133e-01
1.675000000000000100e-01
1.600000000000000033e-01
1.524999999999999967e-01
1.462499999999999911e-01
1.437499999999999889e-01
1.387500000000000122e-01
7.049999999999999600e-01
7.049999999999999600e-01
1.650000000000000078e-01
1.637500000000000067e-01
1.637500000000000067e-01
1.687500000000000111e-01
1.600000000000000033e-01
1.587500000000000022e-01
1.562500000000000000e-01
1.487499999999999933e-01
1.575000000000000011e-01
1.600000000000000033e-01
1.575000000000000011e-01
1.600000000000000033e-01
1.700000000000000122e-01
1.687500000000000111e-01
1.724999999999999867e-01
3.825000000000000067e-01
3.825000000000000067e-01
3.825000000000000067e-01
3.825000000000000067e-01
6.500000000000000222e-02
6.500000000000000222e-02
6.500000000000000222e-02
6.500000000000000222e-02
6.500000000000000222e-02
6.999999999999999556e-01
6.999999999999999556e-01
6.999999999999999556e-01
6.999999999999999556e-01
6.999999999999999556e-01
6.999999999999999556e-01
6.999999999999999556e-01
3.837499999999999800e-01
3.837499999999999800e-01
3.837499999999999800e-01
3.837499999999999800e-01
3.837499999999999800e-01
3.837499999999999800e-01
3.843750000000000222e-01
3.850000000000000089e-01
3.850000000000000089e-01
7.025000000000000133e-01
3.862499999999999822e-01
3.862499999999999822e-01
3.862499999999999822e-01
3.862499999999999822e-01
3.862499999999999822e-01
3.862499999999999822e-01
3.862499999999999822e-01
3.862499999999999822e-01
3.862499999999999822e-01
3.862499999999999822e-01
3.862499999999999822e-01
7.000000000000000666e-02
7.000000000000000666e-02
7.000000000000000666e-02
7.000000000000000666e-02
3.875000000000000111e-01
7.049999999999999600e-01
7.049999999999999600e-01
3.875000000000000111e-01
3.875000000000000111e-01
7.000000000000000666e-02
7.000000000000000666e-02
7.000000000000000666e-02
7.000000000000000666e-02
3.862499999999999822e-01
3.862499999999999822e-01
3.862499999999999822e-01
3.862499999999999822e-01
3.862499999999999822e-01
3.850000000000000089e-01
3.850000000000000089e-01
7.025000000000000133e-01
6.500000000000000222e-02
6.999999999999999556e-01
3.812499999999999778e-01
3.800000000000000044e-01
6.975000000000000089e-01
3.787499999999999756e-01
6.975000000000000089e-01
6.999999999999999556e-01
3.812499999999999778e-01
3.837499999999999800e-01
6.750000000000000444e-02
3.862499999999999822e-01
7.062500000000000444e-01
7.075000000000000178e-01
3.912499999999999867e-01
7.249999999999999500e-02
3.925000000000000155e-01
3.925000000000000155e-01
7.099999999999999645e-01
7.099999999999999645e-01
7.099999999999999645e-01
3.912499999999999867e-01
3.912499999999999867e-01
7.075000000000000178e-01
7.075000000000000178e-01
7.049999999999999600e-01
7.025000000000000133e-01
7.000000000000000666e-02
5.625000000000000139e-02
4.250000000000000305e-02
6.137500000000000178e-01
6.149999999999999911e-01
5.799999999999999600e-01
5.637499999999999734e-01
5.812500000000000444e-01
5.687499999999999778e-01
1.387500000000000122e-01
1.662500000000000089e-01
1.700000000000000122e-01
1.562500000000000000e-01
1.424999999999999878e-01
1.199999999999999956e-01
9.500000000000000111e-02
4.000000000000000222e-01
7.075000000000000178e-01
7.075000000000000178e-01
3.950000000000000178e-01
3.950000000000000178e-01
3.950000000000000178e-01
3.937499999999999889e-01
3.937499999999999889e-01
3.937499999999999889e-01
7.075000000000000178e-01
3.925000000000000155e-01
7.749999999999999944e-02
3.912499999999999867e-01
7.049999999999999600e-01
7.049999999999999600e-01
7.049999999999999600e-01
3.900000000000000133e-01
7.049999999999999600e-01
7.049999999999999600e-01
7.075000000000000178e-01
3.925000000000000155e-01
3.925000000000000155e-01
3.925000000000000155e-01
7.075000000000000178e-01
3.912499999999999867e-01
3.912499999999999867e-01
3.912499999999999867e-01
3.900000000000000133e-01
3.900000000000000133e-01
7.249999999999999500e-02
7.249999999999999500e-02
7.049999999999999600e-01
7.049999999999999600e-01
7.000000000000000666e-02
7.000000000000000666e-02
7.000000000000000666e-02
7.025000000000000133e-01
3.850000000000000089e-01
6.750000000000000444e-02
3.825000000000000067e-01
6.250000000000000000e-02
3.775000000000000022e-01
5.500000000000000028e-02
3.737500000000000266e-01
6.912500000000000311e-01
3.699999999999999956e-01
5.000000000000000278e-02
4.750000000000000056e-02
3.649999999999999911e-01
3.649999999999999911e-01
4.499999999999999833e-02
3.662500000000000200e-01
6.899999999999999467e-01
6.899999999999999467e-01
3.699999999999999956e-01
5.000000000000000278e-02
5.249999999999999806e-02
3.762499999999999734e-01
3.775000000000000022e-01
3.800000000000000044e-01
3.800000000000000044e-01
6.250000000000000000e-02
3.837499999999999800e-01
6.500000000000000222e-02
3.850000000000000089e-01
7.049999999999999600e-01
6.750000000000000444e-02
3.875000000000000111e-01
7.000000000000000666e-02
7.000000000000000666e-02
7.000000000000000666e-02
3.887499999999999845e-01
3.887499999999999845e-01
7.249999999999999500e-02
7.249999999999999500e-02
7.249999999999999500e-02
7.249999999999999500e-02
7.249999999999999500e-02
7.062500000000000444e-01
3.887499999999999845e-01
3.887499999999999845e-01
7.049999999999999600e-01
7.049999999999999600e-01
7.049999999999999600e-01
3.875000000000000111e-01
3.875000000000000111e-01
3.875000000000000111e-01
3.875000000000000111e-01
7.025000000000000133e-01
7.025000000000000133e-01
7.025000000000000133e-01
7.025000000000000133e-01
7.025000000000000133e-01
7.025000000000000133e-01
7.025000000000000133e-01
3.862499999999999822e-01
3.862499999999999822e-01
3.862499999999999822e-01
7.249999999999999500e-02
3.875000000000000111e-01
3.875000000000000111e-01
7.249999999999999500e-02
3.887499999999999845e-01
3.887499999999999845e-01
7.249999999999999500e-02
3.887499999999999845e-01
3.887499999999999845e-01
7.049999999999999600e-01
3.900000000000000133e-01
7.249999999999999500e-02
7.249999999999999500e-02
3.887499999999999845e-01
7.049999999999999600e-01
7.049999999999999600e-01
7.049999999999999600e-01
3.887499999999999845e-01
3.887499999999999845e-01
7.062500000000000444e-01
3.887499999999999845e-01
7.499999999999999722e-02
3.900000000000000133e-01
3.900000000000000133e-01
3.900000000000000133e-01
7.499999999999999722e-02
7.499999999999999722e-02
3.887499999999999845e-01
3.887499999999999845e-01
7.049999999999999600e-01
7.049999999999999600e-01
3.900000000000000133e-01
3.900000000000000133e-01
3.900000000000000133e-01
3.900000000000000133e-01
7.249999999999999500e-02
3.887499999999999845e-01
7.049999999999999600e-01
7.049999999999999600e-01
3.887499999999999845e-01
3.887499999999999845e-01
7.025000000000000133e-01
3.862499999999999822e-01
3.850000000000000089e-01
7.249999999999999500e-02
7.249999999999999500e-02
7.249999999999999500e-02
7.249999999999999500e-02
7.249999999999999500e-02
7.249999999999999500e-02
7.249999999999999500e-02
3.850000000000000089e-01
3.850000000000000089e-01
3.850000000000000089e-01
6.975000000000000089e-01
6.975000000000000089e-01
6.999999999999999556e-01
7.749999999999999944e-02
7.749999999999999944e-02
7.624999999999999833e-02
3.912499999999999867e-01
3.912499999999999867e-01
8.000000000000000167e-02
3.925000000000000155e-01
3.925000000000000155e-01
3.937499999999999889e-01
7.075000000000000178e-01
7.075000000000000178e-01
7.075000000000000178e-01
3.937499999999999889e-01
3.937499999999999889e-01
7.087499999999999911e-01
3.900000000000000133e-01
7.000000000000000666e-02
4.875000000000000167e-02
4.875000000000000167e-02
6.137500000000000178e-01
6.037500000000000089e-01
5.699999999999999512e-01
5.775000000000000133e-01
5.775000000000000133e-01
1.262500000000000011e-01
1.400000000000000133e-01
1.687500000000000111e-01
1.650000000000000078e-01
1.537499999999999978e-01
1.412499999999999867e-01
1.300000000000000044e-01
