0.000000000000000000e+00
0.000000000000000000e+00
5.687982903172805055e-03
1.137596580634561011e-02
1.706394870951826945e-02
2.275193161269107450e-02
2.843991451586387956e-02
3.412789741903668461e-02
3.981588032220948620e-02
4.550386322538214900e-02
5.119184612855495059e-02
5.687982903172775911e-02
6.256781193490056070e-02
6.825579483807336922e-02
7.394377774124602509e-02
7.963176064441883362e-02
8.531974354759164214e-02
9.100772645076443679e-02
9.669570935393724531e-02
1.023836922571099012e-01
1.080716751602827097e-01
1.137596580634555182e-01
1.194476409666283268e-01
1.251356238698011214e-01
1.308236067729737773e-01
1.365115896761465997e-01
1.421995725793193943e-01
1.478875554824921890e-01
1.535755383856650114e-01
1.592635212888376672e-01
1.649515041920104619e-01
1.706394870951832843e-01
1.763274699983560789e-01
1.820154529015288736e-01
1.877034358047015572e-01
1.933914187078743518e-01
1.990794016110471465e-01
2.047673845142199689e-01
2.104553674173927635e-01
2.161433503205654194e-01
2.218313332237383806e-01
2.275193161269110365e-01
2.332072990300838311e-01
2.388952819332566535e-01
2.445832648364293094e-01
2.502712477396022428e-01
2.559592306427749264e-01
2.616472135459475545e-01
2.673351964491205157e-01
2.730231793522931993e-01
2.787111622554661050e-01
2.843991451586387886e-01
2.900871280618117498e-01
2.957751109649843779e-01
3.014630938681570616e-01
3.071510767713300227e-01
3.128390596745026508e-01
3.185270425776753345e-01
3.242150254808482956e-01
3.299030083840209238e-01
3.355909912871938849e-01
3.412789741903665686e-01
3.469669570935394742e-01
3.526549399967121579e-01
3.583429228998848415e-01
3.640309058030577471e-01
3.697188887062304308e-01
3.754068716094031144e-01
3.810948545125760201e-01
3.867828374157487037e-01
3.924708203189216649e-01
3.981588032220942930e-01
4.038467861252672542e-01
4.095347690284399378e-01
4.152227519316125659e-01
4.209107348347855271e-01
4.265987177379582107e-01
4.322867006411308388e-01
4.379746835443038000e-01
2.405063291139240556e-01
2.379746835443037889e-01
2.354430379746835500e-01
4.050632911392405139e-02
4.050632911392405139e-02
4.050632911392405139e-02
4.050632911392405139e-02
4.050632911392405139e-02
4.050632911392405139e-02
4.050632911392405139e-02
4.050632911392405139e-02
4.050632911392405139e-02
4.050632911392405139e-02
4.050632911392405139e-02
4.050632911392405139e-02
4.050632911392405139e-02
4.050632911392405139e-02
4.050632911392405139e-02
4.050632911392405139e-02
4.050632911392405139e-02
4.050632911392405139e-02
4.050632911392405139e-02
4.050632911392405139e-02
4.050632911392405139e-02
4.050632911392405139e-02
4.050632911392405139e-02
4.050632911392405139e-02
4.050632911392405139e-02
4.050632911392405139e-02
4.050632911392405139e-02
4.050632911392405139e-02
4.050632911392405139e-02
4.050632911392405139e-02
4.050632911392405139e-02
4.050632911392405139e-02
4.050632911392405139e-02
4.050632911392405139e-02
4.050632911392405139e-02
4.050632911392405139e-02
2.354430379746835500e-01
2.379746835443037889e-01
2.455696202531645611e-01
4.354430379746835333e-01
6.481012658227848222e-01
6.556962025316456222e-01
6.556962025316456222e-01
4.303797468354430555e-01
4.303797468354430555e-01
4.278481012658227889e-01
4.253164556962025222e-01
4.253164556962025222e-01
4.227848101265822556e-01
4.227848101265822556e-01
4.202531645569620444e-01
4.177215189873417778e-01
4.151898734177215111e-01
4.151898734177215111e-01
4.101265822784810333e-01
4.050632911392405000e-01
4.050632911392405000e-01
3.974683544303797555e-01
3.949367088607594889e-01
3.848101265822784778e-01
3.746835443037974667e-01
3.670886075949367222e-01
3.544303797468354444e-01
3.468354430379747000e-01
3.341772151898734222e-01
3.265822784810126778e-01
3.215189873417721445e-01
3.215189873417721445e-01
3.240506329113924111e-01
3.240506329113924111e-01
3.265822784810126778e-01
3.341772151898734222e-01
3.443037974683544333e-01
3.518987341772151778e-01
3.645569620253164556e-01
3.797468354430380000e-01
3.924050632911392222e-01
4.025316455696202333e-01
4.101265822784810333e-01
4.202531645569620444e-01
4.303797468354430555e-01
4.379746835443038000e-01
4.455696202531645445e-01
4.506329113924050778e-01
4.506329113924050778e-01
4.556962025316455556e-01
4.556962025316455556e-01
4.556962025316455556e-01
4.582278481012658222e-01
4.582278481012658222e-01
4.582278481012658222e-01
4.582278481012658222e-01
4.582278481012658222e-01
4.582278481012658222e-01
4.582278481012658222e-01
4.582278481012658222e-01
4.556962025316455556e-01
4.556962025316455556e-01
4.556962025316455556e-01
4.556962025316455556e-01
4.556962025316455556e-01
4.582278481012658222e-01
4.582278481012658222e-01
4.582278481012658222e-01
4.582278481012658222e-01
4.607594936708860889e-01
4.607594936708860889e-01
4.607594936708860889e-01
4.607594936708860889e-01
4.607594936708860889e-01
4.556962025316455556e-01
4.531645569620252889e-01
4.556962025316455556e-01
4.607594936708860889e-01
4.607594936708860889e-01
4.607594936708860889e-01
4.607594936708860889e-01
4.607594936708860889e-01
4.607594936708860889e-01
4.607594936708860889e-01
4.582278481012658222e-01
4.582278481012658222e-01
4.582278481012658222e-01
4.556962025316455556e-01
4.531645569620252889e-01
4.430379746835442778e-01
4.379746835443038000e-01
4.379746835443038000e-01
4.405063291139240667e-01
4.405063291139240667e-01
4.379746835443038000e-01
4.303797468354430555e-01
4.253164556962025222e-01
4.253164556962025222e-01
4.253164556962025222e-01
4.253164556962025222e-01
4.278481012658227889e-01
4.278481012658227889e-01
4.354430379746835333e-01
4.405063291139240667e-01
4.531645569620252889e-01
4.607594936708860889e-01
4.632911392405063555e-01
4.658227848101265667e-01
4.683544303797468333e-01
4.708860759493671000e-01
4.683544303797468333e-01
4.632911392405063555e-01
4.632911392405063555e-01
4.632911392405063555e-01
4.607594936708860889e-01
4.582278481012658222e-01
4.582278481012658222e-01
4.582278481012658222e-01
4.632911392405063555e-01
4.632911392405063555e-01
4.632911392405063555e-01
4.455696202531645445e-01
4.126582278481012445e-01
3.468354430379747000e-01
3.088607594936708667e-01
2.708860759493670889e-01
2.987341772151898556e-01
3.822784810126582111e-01
4.430379746835442778e-01
4.962025316455696000e-01
5.518987341772152444e-01
5.316455696202531112e-01
5.164556962025316222e-01
4.860759493670885889e-01
4.683544303797468333e-01
4.632911392405063555e-01
4.582278481012658222e-01
4.506329113924050778e-01
4.481012658227848111e-01
4.481012658227848111e-01
4.481012658227848111e-01
4.455696202531645445e-01
4.455696202531645445e-01
4.455696202531645445e-01
4.430379746835442778e-01
4.430379746835442778e-01
4.430379746835442778e-01
4.405063291139240667e-01
4.405063291139240667e-01
4.329113924050632667e-01
4.278481012658227889e-01
4.253164556962025222e-01
4.253164556962025222e-01
4.202531645569620444e-01
4.202531645569620444e-01
4.177215189873417778e-01
4.126582278481012445e-01
4.101265822784810333e-01
4.000000000000000222e-01
3.949367088607594889e-01
3.848101265822784778e-01
3.797468354430380000e-01
3.721518987341772000e-01
3.645569620253164556e-01
3.544303797468354444e-01
3.493670886075949111e-01
3.367088607594936889e-01
3.316455696202531556e-01
3.291139240506328889e-01
3.316455696202531556e-01
3.341772151898734222e-01
3.341772151898734222e-01
3.341772151898734222e-01
3.392405063291139000e-01
3.468354430379747000e-01
3.569620253164557111e-01
3.696202531645569889e-01
3.848101265822784778e-01
3.949367088607594889e-01
4.050632911392405000e-01
4.151898734177215111e-01
4.202531645569620444e-01
4.253164556962025222e-01
4.354430379746835333e-01
4.430379746835442778e-01
4.481012658227848111e-01
4.506329113924050778e-01
4.531645569620252889e-01
4.556962025316455556e-01
4.582278481012658222e-01
4.582278481012658222e-01
4.582278481012658222e-01
4.582278481012658222e-01
4.582278481012658222e-01
4.582278481012658222e-01
4.582278481012658222e-01
4.582278481012658222e-01
4.582278481012658222e-01
4.582278481012658222e-01
4.582278481012658222e-01
4.582278481012658222e-01
4.582278481012658222e-01
4.582278481012658222e-01
4.582278481012658222e-01
4.582278481012658222e-01
4.582278481012658222e-01
4.556962025316455556e-01
4.556962025316455556e-01
4.531645569620252889e-01
4.481012658227848111e-01
4.430379746835442778e-01
4.405063291139240667e-01
4.430379746835442778e-01
4.405063291139240667e-01
4.405063291139240667e-01
4.405063291139240667e-01
4.430379746835442778e-01
4.430379746835442778e-01
4.430379746835442778e-01
4.405063291139240667e-01
4.379746835443038000e-01
4.329113924050632667e-01
4.303797468354430555e-01
4.303797468354430555e-01
4.303797468354430555e-01
4.253164556962025222e-01
4.177215189873417778e-01
4.075949367088607667e-01
4.101265822784810333e-01
4.101265822784810333e-01
4.126582278481012445e-01
4.126582278481012445e-01
4.151898734177215111e-01
4.227848101265822556e-01
4.278481012658227889e-01
4.430379746835442778e-01
4.455696202531645445e-01
4.455696202531645445e-01
4.481012658227848111e-01
4.556962025316455556e-01
4.582278481012658222e-01
4.582278481012658222e-01
4.531645569620252889e-01
4.531645569620252889e-01
4.506329113924050778e-01
4.506329113924050778e-01
4.481012658227848111e-01
4.481012658227848111e-01
4.481012658227848111e-01
4.531645569620252889e-01
4.556962025316455556e-01
4.582278481012658222e-01
4.430379746835442778e-01
4.202531645569620444e-01
3.569620253164557111e-01
3.088607594936708667e-01
2.481012658227848000e-01
2.582278481012658111e-01
3.240506329113924111e-01
4.126582278481012445e-01
4.430379746835442778e-01
5.316455696202531112e-01
5.265822784810126889e-01
5.037974683544304000e-01
4.835443037974683778e-01
4.607594936708860889e-01
4.582278481012658222e-01
4.531645569620252889e-01
4.481012658227848111e-01
4.455696202531645445e-01
4.405063291139240667e-01
4.379746835443038000e-01
4.354430379746835333e-01
4.278481012658227889e-01
4.278481012658227889e-01
4.227848101265822556e-01
4.227848101265822556e-01
4.202531645569620444e-01
4.177215189873417778e-01
4.177215189873417778e-01
4.177215189873417778e-01
4.177215189873417778e-01
4.151898734177215111e-01
4.151898734177215111e-01
4.151898734177215111e-01
4.101265822784810333e-01
4.101265822784810333e-01
4.050632911392405000e-01
4.025316455696202333e-01
4.000000000000000222e-01
3.949367088607594889e-01
3.873417721518987444e-01
3.797468354430380000e-01
3.746835443037974667e-01
3.620253164556961889e-01
3.518987341772151778e-01
3.417721518987341667e-01
3.341772151898734222e-01
3.265822784810126778e-01
3.215189873417721445e-01
3.189873417721518778e-01
3.189873417721518778e-01
3.215189873417721445e-01
3.240506329113924111e-01
3.291139240506328889e-01
3.341772151898734222e-01
3.468354430379747000e-01
3.569620253164557111e-01
3.696202531645569889e-01
3.822784810126582111e-01
3.924050632911392222e-01
4.025316455696202333e-01
4.151898734177215111e-01
4.227848101265822556e-01
4.303797468354430555e-01
4.354430379746835333e-01
4.379746835443038000e-01
4.430379746835442778e-01
4.455696202531645445e-01
4.481012658227848111e-01
4.506329113924050778e-01
4.506329113924050778e-01
4.506329113924050778e-01
4.531645569620252889e-01
4.531645569620252889e-01
4.556962025316455556e-01
4.556962025316455556e-01
4.582278481012658222e-01
4.556962025316455556e-01
4.556962025316455556e-01
4.531645569620252889e-01
4.531645569620252889e-01
4.531645569620252889e-01
4.531645569620252889e-01
4.531645569620252889e-01
4.506329113924050778e-01
4.506329113924050778e-01
4.506329113924050778e-01
4.506329113924050778e-01
4.506329113924050778e-01
4.556962025316455556e-01
4.556962025316455556e-01
4.556962025316455556e-01
4.556962025316455556e-01
4.556962025316455556e-01
4.531645569620252889e-01
4.531645569620252889e-01
4.531645569620252889e-01
4.506329113924050778e-01
4.506329113924050778e-01
4.506329113924050778e-01
4.506329113924050778e-01
4.481012658227848111e-01
4.481012658227848111e-01
4.481012658227848111e-01
4.430379746835442778e-01
4.379746835443038000e-01
4.379746835443038000e-01
4.329113924050632667e-01
4.303797468354430555e-01
4.253164556962025222e-01
4.202531645569620444e-01
4.126582278481012445e-01
4.075949367088607667e-01
4.050632911392405000e-01
4.050632911392405000e-01
4.075949367088607667e-01
4.177215189873417778e-01
4.278481012658227889e-01
4.354430379746835333e-01
4.455696202531645445e-01
4.531645569620252889e-01
4.556962025316455556e-01
4.556962025316455556e-01
4.582278481012658222e-01
4.582278481012658222e-01
4.582278481012658222e-01
4.607594936708860889e-01
4.607594936708860889e-01
4.607594936708860889e-01
4.607594936708860889e-01
4.582278481012658222e-01
4.556962025316455556e-01
4.556962025316455556e-01
4.582278481012658222e-01
4.632911392405063555e-01
4.683544303797468333e-01
4.531645569620252889e-01
4.303797468354430555e-01
3.721518987341772000e-01
3.164556962025316666e-01
2.556962025316455445e-01
2.582278481012658111e-01
3.367088607594936889e-01
4.000000000000000222e-01
4.886075949367088556e-01
5.417721518987341778e-01
5.392405063291139111e-01
5.189873417721518889e-01
4.962025316455696000e-01
4.734177215189873666e-01
4.632911392405063555e-01
4.582278481012658222e-01
4.506329113924050778e-01
4.481012658227848111e-01
4.455696202531645445e-01
4.455696202531645445e-01
4.455696202531645445e-01
4.430379746835442778e-01
4.430379746835442778e-01
4.430379746835442778e-01
4.430379746835442778e-01
4.430379746835442778e-01
4.405063291139240667e-01
4.405063291139240667e-01
4.329113924050632667e-01
4.278481012658227889e-01
4.227848101265822556e-01
4.202531645569620444e-01
4.177215189873417778e-01
4.151898734177215111e-01
4.177215189873417778e-01
4.151898734177215111e-01
4.101265822784810333e-01
4.000000000000000222e-01
3.949367088607594889e-01
3.873417721518987444e-01
3.822784810126582111e-01
3.746835443037974667e-01
3.620253164556961889e-01
3.544303797468354444e-01
3.443037974683544333e-01
3.341772151898734222e-01
3.291139240506328889e-01
3.265822784810126778e-01
3.215189873417721445e-01
3.189873417721518778e-01
3.215189873417721445e-01
3.240506329113924111e-01
3.240506329113924111e-01
3.341772151898734222e-01
3.417721518987341667e-01
3.518987341772151778e-01
3.645569620253164556e-01
3.772151898734177333e-01
3.898734177215190111e-01
4.025316455696202333e-01
4.126582278481012445e-01
4.202531645569620444e-01
4.278481012658227889e-01
4.329113924050632667e-01
4.405063291139240667e-01
4.405063291139240667e-01
4.405063291139240667e-01
4.455696202531645445e-01
4.455696202531645445e-01
4.481012658227848111e-01
4.506329113924050778e-01
4.531645569620252889e-01
4.556962025316455556e-01
4.556962025316455556e-01
4.531645569620252889e-01
4.556962025316455556e-01
4.556962025316455556e-01
4.556962025316455556e-01
4.556962025316455556e-01
4.556962025316455556e-01
4.556962025316455556e-01
4.582278481012658222e-01
4.582278481012658222e-01
4.582278481012658222e-01
4.556962025316455556e-01
4.506329113924050778e-01
4.506329113924050778e-01
4.506329113924050778e-01
4.506329113924050778e-01
4.506329113924050778e-01
4.506329113924050778e-01
4.506329113924050778e-01
4.531645569620252889e-01
4.531645569620252889e-01
4.556962025316455556e-01
4.556962025316455556e-01
4.556962025316455556e-01
4.556962025316455556e-01
4.556962025316455556e-01
4.556962025316455556e-01
4.556962025316455556e-01
4.556962025316455556e-01
4.582278481012658222e-01
4.405063291139240667e-01
4.405063291139240667e-01
4.405063291139240667e-01
4.405063291139240667e-01
4.405063291139240667e-01
4.405063291139240667e-01
6.860759493670886000e-01
6.734177215189873777e-01
6.708860759493671111e-01
6.430379746835442889e-01
6.430379746835442889e-01
6.329113924050633333e-01
6.354430379746834889e-01
6.379746835443037556e-01
6.405063291139240222e-01
6.531645569620253555e-01
6.481012658227848222e-01
6.658227848101265778e-01
6.683544303797468444e-01
6.708860759493671111e-01
4.607594936708860889e-01
4.455696202531645445e-01
4.430379746835442778e-01
5.240506329113924222e-01
6.126582278481013111e-01
6.177215189873417334e-01
6.354430379746834889e-01
6.481012658227848222e-01
6.607594936708860445e-01
6.759493670886076444e-01
6.911392405063291333e-01
6.962025316455696666e-01
7.012658227848100889e-01
6.936708860759494000e-01
6.810126582278480667e-01
6.683544303797468444e-01
6.506329113924050889e-01
6.354430379746834889e-01
4.430379746835442778e-01
4.708860759493671000e-01
5.240506329113924222e-01
5.772151898734176889e-01
6.531645569620253555e-01
7.316455696202531778e-01
6.936708860759494000e-01
5.772151898734176889e-01
5.240506329113924222e-01
4.405063291139240667e-01
6.329113924050633333e-01
3.493670886075949111e-01
3.746835443037974667e-01
3.974683544303797555e-01
6.075949367088607778e-01
6.101265822784810444e-01
6.126582278481013111e-01
6.177215189873417334e-01
6.531645569620253555e-01
6.405063291139240222e-01
6.455696202531645556e-01
6.481012658227848222e-01
6.962025316455696666e-01
5.670886075949367333e-01
4.278481012658227889e-01
4.278481012658227889e-01
4.278481012658227889e-01
4.278481012658227889e-01
4.303797468354430555e-01
4.329113924050632667e-01
4.354430379746835333e-01
4.354430379746835333e-01
4.379746835443038000e-01
4.379746835443038000e-01
4.379746835443038000e-01
4.405063291139240667e-01
4.430379746835442778e-01
4.455696202531645445e-01
4.506329113924050778e-01
4.531645569620252889e-01
4.607594936708860889e-01
4.683544303797468333e-01
4.734177215189873666e-01
4.810126582278481111e-01
4.886075949367088556e-01
4.936708860759493889e-01
5.012658227848101333e-01
5.063291139240506666e-01
5.139240506329113556e-01
5.189873417721518889e-01
5.215189873417721556e-01
5.164556962025316222e-01
5.164556962025316222e-01
5.113924050632910889e-01
5.037974683544304000e-01
4.962025316455696000e-01
4.911392405063291222e-01
4.810126582278481111e-01
4.708860759493671000e-01
4.658227848101265667e-01
4.582278481012658222e-01
4.481012658227848111e-01
4.430379746835442778e-01
4.329113924050632667e-01
4.278481012658227889e-01
4.253164556962025222e-01
4.253164556962025222e-01
4.253164556962025222e-01
4.253164556962025222e-01
4.253164556962025222e-01
4.227848101265822556e-01
4.253164556962025222e-01
4.227848101265822556e-01
4.202531645569620444e-01
4.253164556962025222e-01
4.278481012658227889e-01
4.278481012658227889e-01
4.253164556962025222e-01
4.253164556962025222e-01
4.253164556962025222e-01
4.227848101265822556e-01
4.227848101265822556e-01
4.202531645569620444e-01
4.202531645569620444e-01
4.202531645569620444e-01
4.227848101265822556e-01
4.227848101265822556e-01
4.253164556962025222e-01
4.253164556962025222e-01
4.253164556962025222e-01
4.253164556962025222e-01
4.278481012658227889e-01
4.278481012658227889e-01
4.278481012658227889e-01
4.278481012658227889e-01
4.278481012658227889e-01
4.278481012658227889e-01
4.278481012658227889e-01
4.278481012658227889e-01
4.278481012658227889e-01
4.278481012658227889e-01
4.278481012658227889e-01
4.278481012658227889e-01
4.278481012658227889e-01
4.278481012658227889e-01
4.278481012658227889e-01
4.253164556962025222e-01
4.253164556962025222e-01
4.253164556962025222e-01
4.253164556962025222e-01
4.253164556962025222e-01
4.253164556962025222e-01
4.227848101265822556e-01
4.227848101265822556e-01
4.227848101265822556e-01
4.227848101265822556e-01
4.278481012658227889e-01
4.329113924050632667e-01
4.405063291139240667e-01
4.481012658227848111e-01
4.531645569620252889e-01
4.582278481012658222e-01
4.658227848101265667e-01
4.759493670886075778e-01
4.810126582278481111e-01
4.810126582278481111e-01
4.835443037974683778e-01
4.810126582278481111e-01
4.784810126582278444e-01
4.708860759493671000e-01
4.607594936708860889e-01
4.506329113924050778e-01
4.405063291139240667e-01
4.278481012658227889e-01
4.227848101265822556e-01
4.177215189873417778e-01
4.151898734177215111e-01
4.126582278481012445e-01
4.126582278481012445e-01
4.126582278481012445e-01
4.101265822784810333e-01
4.101265822784810333e-01
4.101265822784810333e-01
4.101265822784810333e-01
4.101265822784810333e-01
4.101265822784810333e-01
4.101265822784810333e-01
4.025316455696202333e-01
4.000000000000000222e-01
4.151898734177215111e-01
4.354430379746835333e-01
4.962025316455696000e-01
5.620253164556962000e-01
6.303797468354430666e-01
7.113924050632911555e-01
7.189873417721518445e-01
6.075949367088607778e-01
5.139240506329113556e-01
4.126582278481012445e-01
3.265822784810126778e-01
3.265822784810126778e-01
3.518987341772151778e-01
3.797468354430380000e-01
3.974683544303797555e-01
4.151898734177215111e-01
4.151898734177215111e-01
4.177215189873417778e-01
4.202531645569620444e-01
4.202531645569620444e-01
4.227848101265822556e-01
4.253164556962025222e-01
4.253164556962025222e-01
4.253164556962025222e-01
4.253164556962025222e-01
4.278481012658227889e-01
4.303797468354430555e-01
4.303797468354430555e-01
4.329113924050632667e-01
4.354430379746835333e-01
4.354430379746835333e-01
4.379746835443038000e-01
4.379746835443038000e-01
4.405063291139240667e-01
4.430379746835442778e-01
4.455696202531645445e-01
4.481012658227848111e-01
4.531645569620252889e-01
4.582278481012658222e-01
4.658227848101265667e-01
4.683544303797468333e-01
4.683544303797468333e-01
4.759493670886075778e-01
4.835443037974683778e-01
4.860759493670885889e-01
4.962025316455696000e-01
5.012658227848101333e-01
5.113924050632910889e-01
5.113924050632910889e-01
5.139240506329113556e-01
5.139240506329113556e-01
5.139240506329113556e-01
5.113924050632910889e-01
5.088607594936709333e-01
5.037974683544304000e-01
4.987341772151898667e-01
4.936708860759493889e-01
4.911392405063291222e-01
4.810126582278481111e-01
4.683544303797468333e-01
4.607594936708860889e-01
4.506329113924050778e-01
4.455696202531645445e-01
4.379746835443038000e-01
4.329113924050632667e-01
4.303797468354430555e-01
4.253164556962025222e-01
4.253164556962025222e-01
4.253164556962025222e-01
4.227848101265822556e-01
4.227848101265822556e-01
4.227848101265822556e-01
4.215189873417721778e-01
4.202531645569620444e-01
4.202531645569620444e-01
4.202531645569620444e-01
4.227848101265822556e-01
4.227848101265822556e-01
4.227848101265822556e-01
4.202531645569620444e-01
4.202531645569620444e-01
4.227848101265822556e-01
4.227848101265822556e-01
4.253164556962025222e-01
4.253164556962025222e-01
4.278481012658227889e-01
4.278481012658227889e-01
4.303797468354430555e-01
4.303797468354430555e-01
4.303797468354430555e-01
4.303797468354430555e-01
4.303797468354430555e-01
4.329113924050632667e-01
4.329113924050632667e-01
4.329113924050632667e-01
4.329113924050632667e-01
4.329113924050632667e-01
4.329113924050632667e-01
4.329113924050632667e-01
4.303797468354430555e-01
4.303797468354430555e-01
4.303797468354430555e-01
4.303797468354430555e-01
4.278481012658227889e-01
4.278481012658227889e-01
4.253164556962025222e-01
4.253164556962025222e-01
4.253164556962025222e-01
4.227848101265822556e-01
4.227848101265822556e-01
4.227848101265822556e-01
4.227848101265822556e-01
4.227848101265822556e-01
4.227848101265822556e-01
4.227848101265822556e-01
4.253164556962025222e-01
4.303797468354430555e-01
4.405063291139240667e-01
4.481012658227848111e-01
4.531645569620252889e-01
4.582278481012658222e-01
4.658227848101265667e-01
4.683544303797468333e-01
4.810126582278481111e-01
4.860759493670885889e-01
4.810126582278481111e-01
4.810126582278481111e-01
4.734177215189873666e-01
4.734177215189873666e-01
4.658227848101265667e-01
4.582278481012658222e-01
4.481012658227848111e-01
4.354430379746835333e-01
4.278481012658227889e-01
4.227848101265822556e-01
4.227848101265822556e-01
4.227848101265822556e-01
4.227848101265822556e-01
4.227848101265822556e-01
4.202531645569620444e-01
4.202531645569620444e-01
4.202531645569620444e-01
4.151898734177215111e-01
4.151898734177215111e-01
4.151898734177215111e-01
4.177215189873417778e-01
4.177215189873417778e-01
4.202531645569620444e-01
4.329113924050632667e-01
4.556962025316455556e-01
5.164556962025316222e-01
5.569620253164556667e-01
6.632911392405063111e-01
7.215189873417721111e-01
7.164556962025316889e-01
6.075949367088607778e-01
5.088607594936709333e-01
4.101265822784810333e-01
3.341772151898734222e-01
3.417721518987341667e-01
3.670886075949367222e-01
3.873417721518987444e-01
4.075949367088607667e-01
4.227848101265822556e-01
4.278481012658227889e-01
4.303797468354430555e-01
4.303797468354430555e-01
4.303797468354430555e-01
4.329113924050632667e-01
4.329113924050632667e-01
4.329113924050632667e-01
4.354430379746835333e-01
4.354430379746835333e-01
4.354430379746835333e-01
4.405063291139240667e-01
4.405063291139240667e-01
4.455696202531645445e-01
4.481012658227848111e-01
4.506329113924050778e-01
4.531645569620252889e-01
4.556962025316455556e-01
4.556962025316455556e-01
4.582278481012658222e-01
4.582278481012658222e-01
4.607594936708860889e-01
4.658227848101265667e-01
4.683544303797468333e-01
4.708860759493671000e-01
4.784810126582278444e-01
4.860759493670885889e-01
4.911392405063291222e-01
4.987341772151898667e-01
5.037974683544304000e-01
5.215189873417721556e-01
5.265822784810126889e-01
5.341772151898733778e-01
5.316455696202531112e-01
5.265822784810126889e-01
5.291139240506329555e-01
5.291139240506329555e-01
5.291139240506329555e-01
5.265822784810126889e-01
5.215189873417721556e-01
5.189873417721518889e-01
5.164556962025316222e-01
5.063291139240506666e-01
4.962025316455696000e-01
4.860759493670885889e-01
4.784810126582278444e-01
4.683544303797468333e-01
4.632911392405063555e-01
4.556962025316455556e-01
4.556962025316455556e-01
4.506329113924050778e-01
4.506329113924050778e-01
4.481012658227848111e-01
4.455696202531645445e-01
4.455696202531645445e-01
4.455696202531645445e-01
4.430379746835442778e-01
4.430379746835442778e-01
4.405063291139240667e-01
4.405063291139240667e-01
4.405063291139240667e-01
4.405063291139240667e-01
4.430379746835442778e-01
4.430379746835442778e-01
4.455696202531645445e-01
4.455696202531645445e-01
4.455696202531645445e-01
4.455696202531645445e-01
4.481012658227848111e-01
4.455696202531645445e-01
4.455696202531645445e-01
4.430379746835442778e-01
4.430379746835442778e-01
4.405063291139240667e-01
4.405063291139240667e-01
4.405063291139240667e-01
4.405063291139240667e-01
4.405063291139240667e-01
4.405063291139240667e-01
4.405063291139240667e-01
4.379746835443038000e-01
4.379746835443038000e-01
4.379746835443038000e-01
4.379746835443038000e-01
4.354430379746835333e-01
4.354430379746835333e-01
4.354430379746835333e-01
4.354430379746835333e-01
4.329113924050632667e-01
4.329113924050632667e-01
4.303797468354430555e-01
4.303797468354430555e-01
4.303797468354430555e-01
4.303797468354430555e-01
4.329113924050632667e-01
4.354430379746835333e-01
4.354430379746835333e-01
4.354430379746835333e-01
4.354430379746835333e-01
4.379746835443038000e-01
4.405063291139240667e-01
4.430379746835442778e-01
4.506329113924050778e-01
4.582278481012658222e-01
4.607594936708860889e-01
4.632911392405063555e-01
4.759493670886075778e-01
4.810126582278481111e-01
4.886075949367088556e-01
4.886075949367088556e-01
4.835443037974683778e-01
4.810126582278481111e-01
4.759493670886075778e-01
4.683544303797468333e-01
4.607594936708860889e-01
4.481012658227848111e-01
4.430379746835442778e-01
4.303797468354430555e-01
4.253164556962025222e-01
4.253164556962025222e-01
4.227848101265822556e-01
4.227848101265822556e-01
4.227848101265822556e-01
4.227848101265822556e-01
4.202531645569620444e-01
4.202531645569620444e-01
4.202531645569620444e-01
4.202531645569620444e-01
4.202531645569620444e-01
4.202531645569620444e-01
4.151898734177215111e-01
4.177215189873417778e-01
4.329113924050632667e-01
4.531645569620252889e-01
5.139240506329113556e-01
5.746835443037974223e-01
6.481012658227848222e-01
7.291139240506329111e-01
7.291139240506329111e-01
6.253164556962025333e-01
5.291139240506329555e-01
3.873417721518987444e-01
4.405063291139240667e-01
4.405063291139240667e-01
4.405063291139240667e-01
4.405063291139240667e-01
4.455696202531645445e-01
4.481012658227848111e-01
6.151898734177214667e-01
6.227848101265822667e-01
6.354430379746834889e-01
6.481012658227848222e-01
6.582278481012657778e-01
6.734177215189873777e-01
6.860759493670886000e-01
6.936708860759494000e-01
7.012658227848100889e-01
6.936708860759494000e-01
6.860759493670886000e-01
6.734177215189873777e-01
6.607594936708860445e-01
6.430379746835442889e-01
6.303797468354430666e-01
6.202531645569620000e-01
6.126582278481013111e-01
5.037974683544304000e-01
3.949367088607594889e-01
3.974683544303797555e-01
4.000000000000000222e-01
6.202531645569620000e-01
6.177215189873417334e-01
6.151898734177214667e-01
6.126582278481013111e-01
6.075949367088607778e-01
6.506329113924050889e-01
6.531645569620253555e-01
6.506329113924050889e-01
6.405063291139240222e-01
4.430379746835442778e-01
5.696202531645570000e-01
5.670886075949367333e-01
7.037974683544303556e-01
5.670886075949367333e-01
4.227848101265822556e-01
4.227848101265822556e-01
4.227848101265822556e-01
4.227848101265822556e-01
4.177215189873417778e-01
4.126582278481012445e-01
4.050632911392405000e-01
3.924050632911392222e-01
3.848101265822784778e-01
3.822784810126582111e-01
3.746835443037974667e-01
3.746835443037974667e-01
3.721518987341772000e-01
3.822784810126582111e-01
4.000000000000000222e-01
4.151898734177215111e-01
4.354430379746835333e-01
4.506329113924050778e-01
4.582278481012658222e-01
4.632911392405063555e-01
4.632911392405063555e-01
4.632911392405063555e-01
4.632911392405063555e-01
4.632911392405063555e-01
4.632911392405063555e-01
4.632911392405063555e-01
4.632911392405063555e-01
4.632911392405063555e-01
4.632911392405063555e-01
4.632911392405063555e-01
4.607594936708860889e-01
4.607594936708860889e-01
4.582278481012658222e-01
4.582278481012658222e-01
4.556962025316455556e-01
4.556962025316455556e-01
4.607594936708860889e-01
4.658227848101265667e-01
4.987341772151898667e-01
5.113924050632910889e-01
5.265822784810126889e-01
5.518987341772152444e-01
5.569620253164556667e-01
5.594936708860759333e-01
5.594936708860759333e-01
5.594936708860759333e-01
5.594936708860759333e-01
5.645569620253164667e-01
5.645569620253164667e-01
5.670886075949367333e-01
5.670886075949367333e-01
5.721518987341772666e-01
5.721518987341772666e-01
5.746835443037974223e-01
5.746835443037974223e-01
5.721518987341772666e-01
5.721518987341772666e-01
5.721518987341772666e-01
5.696202531645570000e-01
5.670886075949367333e-01
5.670886075949367333e-01
5.670886075949367333e-01
5.645569620253164667e-01
5.620253164556962000e-01
5.620253164556962000e-01
5.569620253164556667e-01
5.518987341772152444e-01
5.468354430379747111e-01
5.392405063291139111e-01
5.316455696202531112e-01
5.265822784810126889e-01
5.240506329113924222e-01
5.367088607594936445e-01
5.417721518987341778e-01
5.569620253164556667e-01
5.594936708860759333e-01
5.569620253164556667e-01
5.569620253164556667e-01
5.544303797468354000e-01
5.518987341772152444e-01
5.518987341772152444e-01
5.443037974683544444e-01
5.417721518987341778e-01
5.392405063291139111e-01
5.392405063291139111e-01
5.392405063291139111e-01
5.392405063291139111e-01
5.367088607594936445e-01
5.316455696202531112e-01
5.240506329113924222e-01
5.215189873417721556e-01
5.189873417721518889e-01
5.189873417721518889e-01
5.189873417721518889e-01
5.189873417721518889e-01
5.113924050632910889e-01
5.012658227848101333e-01
4.759493670886075778e-01
4.582278481012658222e-01
4.430379746835442778e-01
4.987341772151898667e-01
5.746835443037974223e-01
6.632911392405063111e-01
8.151898734177215333e-01
9.139240506329113778e-01
8.987341772151898889e-01
8.126582278481012667e-01
7.088607594936708889e-01
6.050632911392405111e-01
5.645569620253164667e-01
5.240506329113924222e-01
4.962025316455696000e-01
4.556962025316455556e-01
4.455696202531645445e-01
3.949367088607594889e-01
3.772151898734177333e-01
3.696202531645569889e-01
3.670886075949367222e-01
3.670886075949367222e-01
3.670886075949367222e-01
3.696202531645569889e-01
3.721518987341772000e-01
3.721518987341772000e-01
3.721518987341772000e-01
3.746835443037974667e-01
3.746835443037974667e-01
3.772151898734177333e-01
3.797468354430380000e-01
3.848101265822784778e-01
3.924050632911392222e-01
3.974683544303797555e-01
4.075949367088607667e-01
4.151898734177215111e-01
4.253164556962025222e-01
4.329113924050632667e-01
4.379746835443038000e-01
4.455696202531645445e-01
4.531645569620252889e-01
4.632911392405063555e-01
4.658227848101265667e-01
4.734177215189873666e-01
4.886075949367088556e-01
4.936708860759493889e-01
4.962025316455696000e-01
5.063291139240506666e-01
5.139240506329113556e-01
5.139240506329113556e-01
5.189873417721518889e-01
5.164556962025316222e-01
5.139240506329113556e-01
5.113924050632910889e-01
5.113924050632910889e-01
5.063291139240506666e-01
5.037974683544304000e-01
4.962025316455696000e-01
4.860759493670885889e-01
4.810126582278481111e-01
4.784810126582278444e-01
4.784810126582278444e-01
4.784810126582278444e-01
4.784810126582278444e-01
4.810126582278481111e-01
4.810126582278481111e-01
4.810126582278481111e-01
4.810126582278481111e-01
4.810126582278481111e-01
4.835443037974683778e-01
4.911392405063291222e-01
4.911392405063291222e-01
4.936708860759493889e-01
4.936708860759493889e-01
4.936708860759493889e-01
4.936708860759493889e-01
4.936708860759493889e-01
4.936708860759493889e-01
4.936708860759493889e-01
4.936708860759493889e-01
4.962025316455696000e-01
4.962025316455696000e-01
4.962025316455696000e-01
4.987341772151898667e-01
4.987341772151898667e-01
4.987341772151898667e-01
4.987341772151898667e-01
5.012658227848101333e-01
5.291139240506329555e-01
5.417721518987341778e-01
5.696202531645570000e-01
5.848101265822784889e-01
5.873417721518987555e-01
5.873417721518987555e-01
5.873417721518987555e-01
5.898734177215190222e-01
5.898734177215190222e-01
5.924050632911392889e-01
5.924050632911392889e-01
5.974683544303797111e-01
5.974683544303797111e-01
5.974683544303797111e-01
5.949367088607594445e-01
5.924050632911392889e-01
5.924050632911392889e-01
5.898734177215190222e-01
5.898734177215190222e-01
5.873417721518987555e-01
5.822784810126582222e-01
5.746835443037974223e-01
5.645569620253164667e-01
5.594936708860759333e-01
5.569620253164556667e-01
5.746835443037974223e-01
5.772151898734176889e-01
5.924050632911392889e-01
5.924050632911392889e-01
5.924050632911392889e-01
5.898734177215190222e-01
5.898734177215190222e-01
5.898734177215190222e-01
5.873417721518987555e-01
5.873417721518987555e-01
5.873417721518987555e-01
5.873417721518987555e-01
5.873417721518987555e-01
5.924050632911392889e-01
5.949367088607594445e-01
5.949367088607594445e-01
5.974683544303797111e-01
5.999999999999999778e-01
6.025316455696202445e-01
5.999999999999999778e-01
5.999999999999999778e-01
5.974683544303797111e-01
5.974683544303797111e-01
5.974683544303797111e-01
5.797468354430379556e-01
5.670886075949367333e-01
5.468354430379747111e-01
5.367088607594936445e-01
5.518987341772152444e-01
6.911392405063291333e-01
7.696202531645569556e-01
9.063291139240505778e-01
1.000000000000000000e+00
9.696202531645569112e-01
9.037974683544304222e-01
7.898734177215189778e-01
7.012658227848100889e-01
6.506329113924050889e-01
6.101265822784810444e-01
5.999999999999999778e-01
5.974683544303797111e-01
5.924050632911392889e-01
5.924050632911392889e-01
5.924050632911392889e-01
5.924050632911392889e-01
5.898734177215190222e-01
5.898734177215190222e-01
5.873417721518987555e-01
5.873417721518987555e-01
5.848101265822784889e-01
5.772151898734176889e-01
5.696202531645570000e-01
5.670886075949367333e-01
5.670886075949367333e-01
5.670886075949367333e-01
5.670886075949367333e-01
5.696202531645570000e-01
5.696202531645570000e-01
5.696202531645570000e-01
5.721518987341772666e-01
5.721518987341772666e-01
5.721518987341772666e-01
5.721518987341772666e-01
5.746835443037974223e-01
5.797468354430379556e-01
5.848101265822784889e-01
5.898734177215190222e-01
5.949367088607594445e-01
5.974683544303797111e-01
6.025316455696202445e-01
6.050632911392405111e-01
6.126582278481013111e-01
6.177215189873417334e-01
6.202531645569620000e-01
6.227848101265822667e-01
6.253164556962025333e-01
6.253164556962025333e-01
6.253164556962025333e-01
6.227848101265822667e-01
6.227848101265822667e-01
6.202531645569620000e-01
6.126582278481013111e-01
6.025316455696202445e-01
5.974683544303797111e-01
5.873417721518987555e-01
5.797468354430379556e-01
5.772151898734176889e-01
5.772151898734176889e-01
5.746835443037974223e-01
5.746835443037974223e-01
5.797468354430379556e-01
5.848101265822784889e-01
5.924050632911392889e-01
5.974683544303797111e-01
5.974683544303797111e-01
5.999999999999999778e-01
5.974683544303797111e-01
5.974683544303797111e-01
5.949367088607594445e-01
5.924050632911392889e-01
5.924050632911392889e-01
5.924050632911392889e-01
5.924050632911392889e-01
5.873417721518987555e-01
5.822784810126582222e-01
5.772151898734176889e-01
5.746835443037974223e-01
5.746835443037974223e-01
5.746835443037974223e-01
5.746835443037974223e-01
5.721518987341772666e-01
5.721518987341772666e-01
5.721518987341772666e-01
5.721518987341772666e-01
5.721518987341772666e-01
5.721518987341772666e-01
5.367088607594936445e-01
5.291139240506329555e-01
5.037974683544304000e-01
4.734177215189873666e-01
4.734177215189873666e-01
4.708860759493671000e-01
4.683544303797468333e-01
4.658227848101265667e-01
4.658227848101265667e-01
4.632911392405063555e-01
4.607594936708860889e-01
4.556962025316455556e-01
4.481012658227848111e-01
4.430379746835442778e-01
4.329113924050632667e-01
4.354430379746835333e-01
4.531645569620252889e-01
4.632911392405063555e-01
4.784810126582278444e-01
4.810126582278481111e-01
4.810126582278481111e-01
4.810126582278481111e-01
4.784810126582278444e-01
4.734177215189873666e-01
4.683544303797468333e-01
4.632911392405063555e-01
4.556962025316455556e-01
4.531645569620252889e-01
4.531645569620252889e-01
4.531645569620252889e-01
4.531645569620252889e-01
4.531645569620252889e-01
4.531645569620252889e-01
4.531645569620252889e-01
4.531645569620252889e-01
4.531645569620252889e-01
4.531645569620252889e-01
4.531645569620252889e-01
4.506329113924050778e-01
4.455696202531645445e-01
4.354430379746835333e-01
4.455696202531645445e-01
4.481012658227848111e-01
4.683544303797468333e-01
5.392405063291139111e-01
6.253164556962025333e-01
7.215189873417721111e-01
8.810126582278481333e-01
9.746835443037974445e-01
9.645569620253164889e-01
8.658227848101265334e-01
7.569620253164557333e-01
6.455696202531645556e-01
5.873417721518987555e-01
5.493670886075949777e-01
5.341772151898733778e-01
5.392405063291139111e-01
5.392405063291139111e-01
5.367088607594936445e-01
5.367088607594936445e-01
5.367088607594936445e-01
5.367088607594936445e-01
5.417721518987341778e-01
5.417721518987341778e-01
5.443037974683544444e-01
5.468354430379747111e-01
5.468354430379747111e-01
5.493670886075949777e-01
5.518987341772152444e-01
5.544303797468354000e-01
5.518987341772152444e-01
5.518987341772152444e-01
5.544303797468354000e-01
5.544303797468354000e-01
5.544303797468354000e-01
5.544303797468354000e-01
5.544303797468354000e-01
5.544303797468354000e-01
5.569620253164556667e-01
5.569620253164556667e-01
5.569620253164556667e-01
5.569620253164556667e-01
5.594936708860759333e-01
5.594936708860759333e-01
5.620253164556962000e-01
5.645569620253164667e-01
5.670886075949367333e-01
5.721518987341772666e-01
5.746835443037974223e-01
5.772151898734176889e-01
5.772151898734176889e-01
5.772151898734176889e-01
5.746835443037974223e-01
5.696202531645570000e-01
5.620253164556962000e-01
5.544303797468354000e-01
5.493670886075949777e-01
5.417721518987341778e-01
5.316455696202531112e-01
5.240506329113924222e-01
5.164556962025316222e-01
5.063291139240506666e-01
4.987341772151898667e-01
4.936708860759493889e-01
4.886075949367088556e-01
4.886075949367088556e-01
4.886075949367088556e-01
4.886075949367088556e-01
4.886075949367088556e-01
4.835443037974683778e-01
4.835443037974683778e-01
4.810126582278481111e-01
4.810126582278481111e-01
4.810126582278481111e-01
4.810126582278481111e-01
4.810126582278481111e-01
4.810126582278481111e-01
4.810126582278481111e-01
4.810126582278481111e-01
4.810126582278481111e-01
4.810126582278481111e-01
4.810126582278481111e-01
4.810126582278481111e-01
4.784810126582278444e-01
4.784810126582278444e-01
4.405063291139240667e-01
4.405063291139240667e-01
4.405063291139240667e-01
4.405063291139240667e-01
4.405063291139240667e-01
4.506329113924050778e-01
6.151898734177214667e-01
6.227848101265822667e-01
6.354430379746834889e-01
6.455696202531645556e-01
6.582278481012657778e-01
6.734177215189873777e-01
6.886075949367088667e-01
6.962025316455696666e-01
6.987341772151898223e-01
6.936708860759494000e-01
6.860759493670886000e-01
6.708860759493671111e-01
6.607594936708860445e-01
6.455696202531645556e-01
6.303797468354430666e-01
6.177215189873417334e-01
6.151898734177214667e-01
6.101265822784810444e-01
4.734177215189873666e-01
4.759493670886075778e-01
6.708860759493671111e-01
6.708860759493671111e-01
6.582278481012657778e-01
6.506329113924050889e-01
6.430379746835442889e-01
6.354430379746834889e-01
6.278481012658228000e-01
6.227848101265822667e-01
6.151898734177214667e-01
6.607594936708860445e-01
6.481012658227848222e-01
6.481012658227848222e-01
6.075949367088607778e-01
5.113924050632910889e-01
5.974683544303797111e-01
5.974683544303797111e-01
5.113924050632910889e-01
5.164556962025316222e-01
5.164556962025316222e-01
5.189873417721518889e-01
5.189873417721518889e-01
5.189873417721518889e-01
5.215189873417721556e-01
5.215189873417721556e-01
5.240506329113924222e-01
5.240506329113924222e-01
5.215189873417721556e-01
5.063291139240506666e-01
4.708860759493671000e-01
4.227848101265822556e-01
3.569620253164557111e-01
2.708860759493670889e-01
1.670886075949367111e-01
1.088607594936708833e-01
1.291139240506329056e-01
3.569620253164557111e-01
4.531645569620252889e-01
7.291139240506329111e-01
7.215189873417721111e-01
6.708860759493671111e-01
6.075949367088607778e-01
5.620253164556962000e-01
5.341772151898733778e-01
5.189873417721518889e-01
5.139240506329113556e-01
5.113924050632910889e-01
5.088607594936709333e-01
5.088607594936709333e-01
5.088607594936709333e-01
5.088607594936709333e-01
5.088607594936709333e-01
5.063291139240506666e-01
5.063291139240506666e-01
5.063291139240506666e-01
5.037974683544304000e-01
4.962025316455696000e-01
4.936708860759493889e-01
4.911392405063291222e-01
4.886075949367088556e-01
4.886075949367088556e-01
4.886075949367088556e-01
4.810126582278481111e-01
4.759493670886075778e-01
4.658227848101265667e-01
4.582278481012658222e-01
4.506329113924050778e-01
4.455696202531645445e-01
4.405063291139240667e-01
4.354430379746835333e-01
4.253164556962025222e-01
4.177215189873417778e-01
4.101265822784810333e-01
4.050632911392405000e-01
4.025316455696202333e-01
4.000000000000000222e-01
4.000000000000000222e-01
4.025316455696202333e-01
4.050632911392405000e-01
4.050632911392405000e-01
4.075949367088607667e-01
4.101265822784810333e-01
4.126582278481012445e-01
4.177215189873417778e-01
4.227848101265822556e-01
4.303797468354430555e-01
4.379746835443038000e-01
4.455696202531645445e-01
4.531645569620252889e-01
4.582278481012658222e-01
4.658227848101265667e-01
4.658227848101265667e-01
4.708860759493671000e-01
4.708860759493671000e-01
4.784810126582278444e-01
4.810126582278481111e-01
4.886075949367088556e-01
4.886075949367088556e-01
4.886075949367088556e-01
4.911392405063291222e-01
4.962025316455696000e-01
4.987341772151898667e-01
4.987341772151898667e-01
4.962025316455696000e-01
4.936708860759493889e-01
4.936708860759493889e-01
4.911392405063291222e-01
4.911392405063291222e-01
4.911392405063291222e-01
4.886075949367088556e-01
4.886075949367088556e-01
4.886075949367088556e-01
4.886075949367088556e-01
4.835443037974683778e-01
4.835443037974683778e-01
4.835443037974683778e-01
4.827004219409281593e-01
4.818565400843882740e-01
4.810126582278481111e-01
4.810126582278481111e-01
4.810126582278481111e-01
4.810126582278481111e-01
4.810126582278481111e-01
4.810126582278481111e-01
4.810126582278481111e-01
4.810126582278481111e-01
4.860759493670885889e-01
4.886075949367088556e-01
4.886075949367088556e-01
4.886075949367088556e-01
4.886075949367088556e-01
4.886075949367088556e-01
4.886075949367088556e-01
4.886075949367088556e-01
4.886075949367088556e-01
4.911392405063291222e-01
4.962025316455696000e-01
5.012658227848101333e-01
5.012658227848101333e-01
5.012658227848101333e-01
4.987341772151898667e-01
4.962025316455696000e-01
4.962025316455696000e-01
4.962025316455696000e-01
4.936708860759493889e-01
4.911392405063291222e-01
4.886075949367088556e-01
4.784810126582278444e-01
4.784810126582278444e-01
4.810126582278481111e-01
4.810126582278481111e-01
4.810126582278481111e-01
4.810126582278481111e-01
4.734177215189873666e-01
4.734177215189873666e-01
4.734177215189873666e-01
4.822784810126582444e-01
4.911392405063291222e-01
4.936708860759493889e-01
4.987341772151898667e-01
5.063291139240506666e-01
5.063291139240506666e-01
5.063291139240506666e-01
5.063291139240506666e-01
5.063291139240506666e-01
5.037974683544304000e-01
5.037974683544304000e-01
5.037974683544304000e-01
5.037974683544304000e-01
5.012658227848101333e-01
5.012658227848101333e-01
5.012658227848101333e-01
5.012658227848101333e-01
4.962025316455696000e-01
4.683544303797468333e-01
4.405063291139240667e-01
3.898734177215190111e-01
3.139240506329114000e-01
2.405063291139240556e-01
1.544303797468354333e-01
1.037974683544303778e-01
2.075949367088607556e-01
3.620253164556961889e-01
5.113924050632910889e-01
6.886075949367088667e-01
6.860759493670886000e-01
6.278481012658228000e-01
5.645569620253164667e-01
5.265822784810126889e-01
4.987341772151898667e-01
4.911392405063291222e-01
4.835443037974683778e-01
4.810126582278481111e-01
4.784810126582278444e-01
4.734177215189873666e-01
4.734177215189873666e-01
4.708860759493671000e-01
4.708860759493671000e-01
4.683544303797468333e-01
4.658227848101265667e-01
4.632911392405063555e-01
4.607594936708860889e-01
4.582278481012658222e-01
4.556962025316455556e-01
4.556962025316455556e-01
4.531645569620252889e-01
4.506329113924050778e-01
4.506329113924050778e-01
4.481012658227848111e-01
4.455696202531645445e-01
4.405063291139240667e-01
4.354430379746835333e-01
4.303797468354430555e-01
4.227848101265822556e-01
4.202531645569620444e-01
4.126582278481012445e-01
4.075949367088607667e-01
4.000000000000000222e-01
3.949367088607594889e-01
3.873417721518987444e-01
3.848101265822784778e-01
3.797468354430380000e-01
3.797468354430380000e-01
3.822784810126582111e-01
3.848101265822784778e-01
3.873417721518987444e-01
3.924050632911392222e-01
4.000000000000000222e-01
4.075949367088607667e-01
4.126582278481012445e-01
4.202531645569620444e-01
4.253164556962025222e-01
4.278481012658227889e-01
4.303797468354430555e-01
4.354430379746835333e-01
4.379746835443038000e-01
4.455696202531645445e-01
4.481012658227848111e-01
4.531645569620252889e-01
4.556962025316455556e-01
4.607594936708860889e-01
4.658227848101265667e-01
4.683544303797468333e-01
4.759493670886075778e-01
4.810126582278481111e-01
4.886075949367088556e-01
4.911392405063291222e-01
4.911392405063291222e-01
4.911392405063291222e-01
4.911392405063291222e-01
4.911392405063291222e-01
4.886075949367088556e-01
4.886075949367088556e-01
4.886075949367088556e-01
4.886075949367088556e-01
4.886075949367088556e-01
4.886075949367088556e-01
4.886075949367088556e-01
4.886075949367088556e-01
4.886075949367088556e-01
4.886075949367088556e-01
4.886075949367088556e-01
4.886075949367088556e-01
4.886075949367088556e-01
4.886075949367088556e-01
4.886075949367088556e-01
4.886075949367088556e-01
4.886075949367088556e-01
4.886075949367088556e-01
4.886075949367088556e-01
4.886075949367088556e-01
4.886075949367088556e-01
4.886075949367088556e-01
4.886075949367088556e-01
4.911392405063291222e-01
4.936708860759493889e-01
4.936708860759493889e-01
4.936708860759493889e-01
4.936708860759493889e-01
4.936708860759493889e-01
4.936708860759493889e-01
4.936708860759493889e-01
4.936708860759493889e-01
4.962025316455696000e-01
4.962025316455696000e-01
4.962025316455696000e-01
4.987341772151898667e-01
4.987341772151898667e-01
4.987341772151898667e-01
4.987341772151898667e-01
5.012658227848101333e-01
5.012658227848101333e-01
5.012658227848101333e-01
5.037974683544304000e-01
5.037974683544304000e-01
4.962025316455696000e-01
4.936708860759493889e-01
4.810126582278481111e-01
4.683544303797468333e-01
4.632911392405063555e-01
4.582278481012658222e-01
4.582278481012658222e-01
4.582278481012658222e-01
4.582278481012658222e-01
4.607594936708860889e-01
4.632911392405063555e-01
4.683544303797468333e-01
4.734177215189873666e-01
4.734177215189873666e-01
4.860759493670885889e-01
4.936708860759493889e-01
4.987341772151898667e-01
5.063291139240506666e-01
5.088607594936709333e-01
5.113924050632910889e-01
5.113924050632910889e-01
5.113924050632910889e-01
5.088607594936709333e-01
5.063291139240506666e-01
5.063291139240506666e-01
5.037974683544304000e-01
5.012658227848101333e-01
5.012658227848101333e-01
4.987341772151898667e-01
4.962025316455696000e-01
4.936708860759493889e-01
4.632911392405063555e-01
4.303797468354430555e-01
3.848101265822784778e-01
3.189873417721518778e-01
2.506329113924050667e-01
1.645569620253164445e-01
1.265822784810126667e-01
2.556962025316455445e-01
4.000000000000000222e-01
5.443037974683544444e-01
7.139240506329114222e-01
6.835443037974683334e-01
6.253164556962025333e-01
5.645569620253164667e-01
