3.904000000000000248e-01
3.904000000000000248e-01
3.885298701298701141e-01
3.866597402597402588e-01
3.847896103896104036e-01
3.829194805194804929e-01
3.810493506493506377e-01
3.791792207792207825e-01
3.773090909090909273e-01
3.754389610389610166e-01
3.735688311688311614e-01
3.716987012987013062e-01
3.698285714285714509e-01
3.679584415584415402e-01
3.660883116883116850e-01
3.642181818181817743e-01
3.623480519480519191e-01
3.604779220779220639e-01
3.586077922077922087e-01
3.567376623376623535e-01
3.548675324675324982e-01
3.529974025974025875e-01
3.511272727272726768e-01
3.492571428571428216e-01
3.473870129870129664e-01
3.455168831168831112e-01
3.436467532467532560e-01
3.417766233766234008e-01
3.399064935064934345e-01
3.380363636363635793e-01
3.361662337662337241e-01
3.342961038961038689e-01
3.324259740259740137e-01
3.305558441558441585e-01
3.286857142857143033e-01
3.268155844155844481e-01
3.249454545454545928e-01
3.230753246753246266e-01
3.212051948051947714e-01
3.193350649350649162e-01
3.174649350649350610e-01
3.155948051948052058e-01
3.137246753246753506e-01
3.118545454545454954e-01
3.099844155844155291e-01
3.081142857142856739e-01
3.062441558441558187e-01
3.043740259740259635e-01
3.025038961038961083e-01
3.006337662337662531e-01
2.987636363636363979e-01
2.968935064935065427e-01
2.950233766233765764e-01
2.931532467532467212e-01
2.912831168831168660e-01
2.894129870129870108e-01
2.875428571428571556e-01
2.856727272727273004e-01
2.838025974025974452e-01
2.819324675324674789e-01
2.800623376623376237e-01
2.781922077922077685e-01
2.763220779220779133e-01
2.744519480519480581e-01
2.725818181818182029e-01
2.707116883116883477e-01
2.688415584415584925e-01
2.669714285714286373e-01
2.651012987012986710e-01
2.632311688311688158e-01
2.613610389610389606e-01
2.594909090909091054e-01
2.576207792207792502e-01
2.557506493506493950e-01
2.538805194805194287e-01
2.520103896103895735e-01
2.501402597402597183e-01
2.482701298701298631e-01
2.464000000000000079e-01
2.000000000000000111e-01
2.000000000000000111e-01
1.952000000000000124e-01
0.000000000000000000e+00
0.000000000000000000e+00
0.000000000000000000e+00
0.000000000000000000e+00
0.000000000000000000e+00
0.000000000000000000e+00
0.000000000000000000e+00
0.000000000000000000e+00
0.000000000000000000e+00
0.000000000000000000e+00
0.000000000000000000e+00
0.000000000000000000e+00
0.000000000000000000e+00
0.000000000000000000e+00
0.000000000000000000e+00
0.000000000000000000e+00
0.000000000000000000e+00
0.000000000000000000e+00
0.000000000000000000e+00
0.000000000000000000e+00
0.000000000000000000e+00
0.000000000000000000e+00
0.000000000000000000e+00
0.000000000000000000e+00
0.000000000000000000e+00
0.000000000000000000e+00
0.000000000000000000e+00
0.000000000000000000e+00
0.000000000000000000e+00
0.000000000000000000e+00
0.000000000000000000e+00
0.000000000000000000e+00
0.000000000000000000e+00
0.000000000000000000e+00
0.000000000000000000e+00
0.000000000000000000e+00
1.935999999999999943e-01
2.000000000000000111e-01
2.031999999999999917e-01
2.368000000000000105e-01
3.840000000000000080e-01
3.775999999999999912e-01
3.775999999999999912e-01
2.736000000000000099e-01
2.720000000000000195e-01
2.624000000000000221e-01
2.544000000000000150e-01
2.320000000000000118e-01
2.048000000000000098e-01
2.031999999999999917e-01
1.600000000000000033e-01
1.504000000000000059e-01
1.456000000000000072e-01
1.935999999999999943e-01
2.320000000000000118e-01
2.544000000000000150e-01
2.624000000000000221e-01
2.736000000000000099e-01
2.752000000000000002e-01
2.752000000000000002e-01
2.720000000000000195e-01
2.703999999999999737e-01
2.687999999999999834e-01
2.671999999999999931e-01
2.656000000000000028e-01
2.703999999999999737e-01
2.720000000000000195e-01
2.720000000000000195e-01
2.656000000000000028e-01
2.624000000000000221e-01
2.607999999999999763e-01
2.640000000000000124e-01
2.703999999999999737e-01
2.720000000000000195e-01
2.720000000000000195e-01
2.687999999999999834e-01
2.671999999999999931e-01
2.607999999999999763e-01
2.544000000000000150e-01
2.528000000000000247e-01
2.528000000000000247e-01
2.528000000000000247e-01
2.560000000000000053e-01
2.544000000000000150e-01
2.528000000000000247e-01
2.511999999999999789e-01
2.447999999999999898e-01
2.447999999999999898e-01
2.416000000000000092e-01
2.399999999999999911e-01
2.351999999999999924e-01
2.303999999999999937e-01
2.255999999999999950e-01
2.240000000000000047e-01
2.223999999999999866e-01
2.240000000000000047e-01
2.223999999999999866e-01
2.207999999999999963e-01
2.175999999999999879e-01
2.159999999999999976e-01
2.096000000000000085e-01
2.064000000000000001e-01
2.016000000000000014e-01
2.000000000000000111e-01
1.968000000000000027e-01
1.952000000000000124e-01
1.904000000000000137e-01
1.872000000000000053e-01
1.855999999999999872e-01
1.855999999999999872e-01
1.855999999999999872e-01
1.839999999999999969e-01
1.872000000000000053e-01
1.920000000000000040e-01
1.983999999999999930e-01
2.031999999999999917e-01
2.096000000000000085e-01
2.144000000000000072e-01
2.192000000000000060e-01
2.255999999999999950e-01
2.288000000000000034e-01
2.320000000000000118e-01
2.320000000000000118e-01
2.303999999999999937e-01
2.303999999999999937e-01
2.320000000000000118e-01
2.320000000000000118e-01
2.336000000000000021e-01
2.336000000000000021e-01
2.351999999999999924e-01
2.368000000000000105e-01
2.416000000000000092e-01
2.495999999999999885e-01
2.511999999999999789e-01
2.447999999999999898e-01
2.368000000000000105e-01
2.384000000000000008e-01
2.399999999999999911e-01
2.384000000000000008e-01
2.384000000000000008e-01
2.399999999999999911e-01
2.464000000000000079e-01
2.447999999999999898e-01
2.416000000000000092e-01
2.431999999999999995e-01
2.464000000000000079e-01
2.479999999999999982e-01
2.528000000000000247e-01
2.528000000000000247e-01
2.544000000000000150e-01
2.544000000000000150e-01
2.544000000000000150e-01
2.528000000000000247e-01
2.528000000000000247e-01
2.544000000000000150e-01
2.560000000000000053e-01
2.575999999999999956e-01
2.591999999999999860e-01
2.624000000000000221e-01
2.591999999999999860e-01
2.591999999999999860e-01
2.591999999999999860e-01
2.607999999999999763e-01
2.624000000000000221e-01
2.687999999999999834e-01
2.703999999999999737e-01
2.703999999999999737e-01
2.687999999999999834e-01
2.687999999999999834e-01
2.656000000000000028e-01
2.687999999999999834e-01
2.703999999999999737e-01
2.687999999999999834e-01
2.656000000000000028e-01
2.624000000000000221e-01
2.607999999999999763e-01
2.591999999999999860e-01
2.591999999999999860e-01
2.575999999999999956e-01
2.560000000000000053e-01
2.624000000000000221e-01
2.640000000000000124e-01
2.687999999999999834e-01
2.656000000000000028e-01
2.624000000000000221e-01
2.624000000000000221e-01
2.640000000000000124e-01
2.656000000000000028e-01
2.640000000000000124e-01
2.656000000000000028e-01
2.656000000000000028e-01
2.656000000000000028e-01
2.640000000000000124e-01
2.624000000000000221e-01
2.624000000000000221e-01
2.600000000000000089e-01
2.575999999999999956e-01
2.575999999999999956e-01
2.560000000000000053e-01
2.560000000000000053e-01
2.575999999999999956e-01
2.575999999999999956e-01
2.591999999999999860e-01
2.560000000000000053e-01
2.528000000000000247e-01
2.528000000000000247e-01
2.511999999999999789e-01
2.511999999999999789e-01
2.511999999999999789e-01
2.464000000000000079e-01
2.416000000000000092e-01
2.368000000000000105e-01
2.320000000000000118e-01
2.288000000000000034e-01
2.223999999999999866e-01
2.175999999999999879e-01
2.175999999999999879e-01
2.175999999999999879e-01
2.223999999999999866e-01
2.272000000000000131e-01
2.303999999999999937e-01
2.320000000000000118e-01
2.320000000000000118e-01
2.320000000000000118e-01
2.320000000000000118e-01
2.320000000000000118e-01
2.320000000000000118e-01
2.336000000000000021e-01
2.351999999999999924e-01
2.368000000000000105e-01
2.399999999999999911e-01
2.399999999999999911e-01
2.416000000000000092e-01
2.479999999999999982e-01
2.479999999999999982e-01
2.544000000000000150e-01
2.544000000000000150e-01
2.479999999999999982e-01
2.272000000000000131e-01
2.175999999999999879e-01
1.807999999999999885e-01
1.376000000000000001e-01
1.072000000000000036e-01
1.136000000000000065e-01
1.487999999999999878e-01
1.887999999999999956e-01
2.207999999999999963e-01
2.320000000000000118e-01
2.399999999999999911e-01
2.511999999999999789e-01
2.528000000000000247e-01
2.528000000000000247e-01
2.560000000000000053e-01
2.624000000000000221e-01
2.624000000000000221e-01
2.640000000000000124e-01
2.591999999999999860e-01
2.575999999999999956e-01
2.575999999999999956e-01
2.575999999999999956e-01
2.575999999999999956e-01
2.575999999999999956e-01
2.575999999999999956e-01
2.591999999999999860e-01
2.591999999999999860e-01
2.607999999999999763e-01
2.607999999999999763e-01
2.591999999999999860e-01
2.591999999999999860e-01
2.591999999999999860e-01
2.591999999999999860e-01
2.575999999999999956e-01
2.575999999999999956e-01
2.575999999999999956e-01
2.575999999999999956e-01
2.560000000000000053e-01
2.528000000000000247e-01
2.511999999999999789e-01
2.544000000000000150e-01
2.544000000000000150e-01
2.528000000000000247e-01
2.464000000000000079e-01
2.399999999999999911e-01
2.399999999999999911e-01
2.399999999999999911e-01
2.416000000000000092e-01
2.431999999999999995e-01
2.431999999999999995e-01
2.399999999999999911e-01
2.416000000000000092e-01
2.416000000000000092e-01
2.464000000000000079e-01
2.431999999999999995e-01
2.464000000000000079e-01
2.464000000000000079e-01
2.416000000000000092e-01
2.368000000000000105e-01
2.384000000000000008e-01
2.431999999999999995e-01
2.464000000000000079e-01
2.464000000000000079e-01
2.479999999999999982e-01
2.447999999999999898e-01
2.399999999999999911e-01
2.384000000000000008e-01
2.368000000000000105e-01
2.368000000000000105e-01
2.399999999999999911e-01
2.447999999999999898e-01
2.495999999999999885e-01
2.544000000000000150e-01
2.591999999999999860e-01
2.640000000000000124e-01
2.671999999999999931e-01
2.703999999999999737e-01
2.736000000000000099e-01
2.752000000000000002e-01
2.800000000000000266e-01
2.800000000000000266e-01
2.800000000000000266e-01
2.847999999999999976e-01
2.847999999999999976e-01
2.896000000000000241e-01
2.896000000000000241e-01
2.896000000000000241e-01
2.912000000000000144e-01
2.912000000000000144e-01
2.912000000000000144e-01
2.896000000000000241e-01
2.847999999999999976e-01
2.832000000000000073e-01
2.816000000000000170e-01
2.832000000000000073e-01
2.832000000000000073e-01
2.879999999999999782e-01
2.879999999999999782e-01
2.863999999999999879e-01
2.863999999999999879e-01
2.847999999999999976e-01
2.847999999999999976e-01
2.847999999999999976e-01
2.832000000000000073e-01
2.832000000000000073e-01
2.816000000000000170e-01
2.816000000000000170e-01
2.847999999999999976e-01
2.863999999999999879e-01
2.800000000000000266e-01
2.752000000000000002e-01
2.720000000000000195e-01
2.736000000000000099e-01
2.767999999999999905e-01
2.767999999999999905e-01
2.767999999999999905e-01
2.767999999999999905e-01
2.752000000000000002e-01
2.752000000000000002e-01
2.752000000000000002e-01
2.752000000000000002e-01
2.752000000000000002e-01
2.752000000000000002e-01
2.752000000000000002e-01
2.736000000000000099e-01
2.736000000000000099e-01
2.736000000000000099e-01
2.752000000000000002e-01
2.767999999999999905e-01
2.752000000000000002e-01
2.720000000000000195e-01
2.671999999999999931e-01
2.624000000000000221e-01
2.624000000000000221e-01
2.607999999999999763e-01
2.607999999999999763e-01
2.591999999999999860e-01
2.591999999999999860e-01
2.575999999999999956e-01
2.575999999999999956e-01
2.575999999999999956e-01
2.575999999999999956e-01
2.575999999999999956e-01
2.591999999999999860e-01
2.591999999999999860e-01
2.591999999999999860e-01
2.560000000000000053e-01
2.560000000000000053e-01
2.624000000000000221e-01
2.656000000000000028e-01
2.671999999999999931e-01
2.656000000000000028e-01
2.656000000000000028e-01
2.624000000000000221e-01
2.575999999999999956e-01
2.528000000000000247e-01
2.464000000000000079e-01
2.464000000000000079e-01
2.511999999999999789e-01
2.544000000000000150e-01
2.544000000000000150e-01
2.528000000000000247e-01
2.479999999999999982e-01
2.447999999999999898e-01
2.399999999999999911e-01
2.431999999999999995e-01
2.447999999999999898e-01
2.368000000000000105e-01
2.320000000000000118e-01
2.272000000000000131e-01
2.272000000000000131e-01
2.288000000000000034e-01
2.303999999999999937e-01
2.336000000000000021e-01
2.351999999999999924e-01
2.384000000000000008e-01
2.399999999999999911e-01
2.456000000000000127e-01
2.511999999999999789e-01
2.528000000000000247e-01
2.560000000000000053e-01
2.591999999999999860e-01
2.544000000000000150e-01
2.528000000000000247e-01
2.511999999999999789e-01
2.511999999999999789e-01
2.528000000000000247e-01
2.528000000000000247e-01
2.575999999999999956e-01
2.560000000000000053e-01
2.495999999999999885e-01
2.320000000000000118e-01
2.192000000000000060e-01
2.000000000000000111e-01
1.615999999999999936e-01
1.247999999999999943e-01
9.760000000000000620e-02
1.184000000000000052e-01
1.439999999999999891e-01
2.016000000000000014e-01
2.207999999999999963e-01
2.368000000000000105e-01
2.544000000000000150e-01
2.560000000000000053e-01
2.591999999999999860e-01
2.591999999999999860e-01
2.607999999999999763e-01
2.607999999999999763e-01
2.591999999999999860e-01
2.591999999999999860e-01
2.575999999999999956e-01
2.560000000000000053e-01
2.544000000000000150e-01
2.544000000000000150e-01
2.544000000000000150e-01
2.528000000000000247e-01
2.464000000000000079e-01
2.384000000000000008e-01
2.384000000000000008e-01
2.431999999999999995e-01
2.511999999999999789e-01
2.544000000000000150e-01
2.560000000000000053e-01
2.560000000000000053e-01
2.544000000000000150e-01
2.528000000000000247e-01
2.528000000000000247e-01
2.511999999999999789e-01
2.511999999999999789e-01
2.479999999999999982e-01
2.447999999999999898e-01
2.399999999999999911e-01
2.384000000000000008e-01
2.384000000000000008e-01
2.384000000000000008e-01
2.384000000000000008e-01
2.384000000000000008e-01
2.368000000000000105e-01
2.368000000000000105e-01
2.368000000000000105e-01
2.336000000000000021e-01
2.320000000000000118e-01
2.255999999999999950e-01
2.223999999999999866e-01
2.192000000000000060e-01
2.175999999999999879e-01
2.175999999999999879e-01
2.175999999999999879e-01
2.192000000000000060e-01
2.207999999999999963e-01
2.223999999999999866e-01
2.175999999999999879e-01
2.144000000000000072e-01
2.096000000000000085e-01
2.096000000000000085e-01
2.096000000000000085e-01
2.096000000000000085e-01
2.079999999999999905e-01
2.079999999999999905e-01
2.111999999999999988e-01
2.127999999999999892e-01
2.144000000000000072e-01
2.175999999999999879e-01
2.223999999999999866e-01
2.288000000000000034e-01
2.303999999999999937e-01
2.288000000000000034e-01
2.240000000000000047e-01
2.240000000000000047e-01
2.240000000000000047e-01
2.255999999999999950e-01
2.255999999999999950e-01
2.255999999999999950e-01
2.272000000000000131e-01
2.272000000000000131e-01
2.272000000000000131e-01
2.272000000000000131e-01
2.272000000000000131e-01
2.223999999999999866e-01
2.192000000000000060e-01
2.127999999999999892e-01
2.127999999999999892e-01
2.127999999999999892e-01
2.127999999999999892e-01
2.127999999999999892e-01
2.127999999999999892e-01
2.127999999999999892e-01
2.111999999999999988e-01
2.464000000000000079e-01
2.464000000000000079e-01
2.464000000000000079e-01
2.464000000000000079e-01
2.464000000000000079e-01
2.464000000000000079e-01
4.047999999999999932e-01
4.000000000000000222e-01
4.000000000000000222e-01
3.904000000000000248e-01
3.904000000000000248e-01
3.775999999999999912e-01
3.840000000000000080e-01
3.775999999999999912e-01
3.775999999999999912e-01
3.840000000000000080e-01
3.775999999999999912e-01
3.920000000000000151e-01
3.936000000000000054e-01
4.000000000000000222e-01
2.767999999999999905e-01
2.752000000000000002e-01
2.752000000000000002e-01
3.151999999999999802e-01
3.200000000000000067e-01
3.583999999999999964e-01
3.744000000000000106e-01
3.840000000000000080e-01
3.904000000000000248e-01
3.983999999999999764e-01
4.079999999999999738e-01
4.112000000000000099e-01
4.128000000000000003e-01
3.423999999999999821e-01
3.983999999999999764e-01
3.951999999999999957e-01
3.855999999999999983e-01
3.760000000000000009e-01
3.664000000000000035e-01
3.599999999999999867e-01
3.568000000000000060e-01
3.168000000000000260e-01
2.752000000000000002e-01
2.767999999999999905e-01
2.767999999999999905e-01
3.552000000000000157e-01
3.840000000000000080e-01
3.840000000000000080e-01
3.855999999999999983e-01
3.456000000000000183e-01
3.439999999999999725e-01
2.783999999999999808e-01
2.783999999999999808e-01
4.159999999999999809e-01
3.503999999999999893e-01
3.503999999999999893e-01
3.487999999999999989e-01
3.472000000000000086e-01
3.472000000000000086e-01
3.472000000000000086e-01
2.752000000000000002e-01
2.767999999999999905e-01
2.800000000000000266e-01
2.816000000000000170e-01
2.816000000000000170e-01
2.816000000000000170e-01
2.816000000000000170e-01
2.783999999999999808e-01
2.783999999999999808e-01
2.736000000000000099e-01
2.736000000000000099e-01
2.736000000000000099e-01
2.752000000000000002e-01
2.720000000000000195e-01
2.720000000000000195e-01
2.720000000000000195e-01
2.752000000000000002e-01
2.783999999999999808e-01
2.783999999999999808e-01
2.800000000000000266e-01
2.800000000000000266e-01
2.800000000000000266e-01
2.800000000000000266e-01
2.800000000000000266e-01
2.800000000000000266e-01
2.800000000000000266e-01
2.800000000000000266e-01
2.783999999999999808e-01
2.783999999999999808e-01
2.767999999999999905e-01
2.752000000000000002e-01
2.736000000000000099e-01
2.800000000000000266e-01
2.832000000000000073e-01
2.624000000000000221e-01
2.368000000000000105e-01
2.048000000000000098e-01
1.743999999999999995e-01
1.552000000000000046e-01
1.776000000000000079e-01
2.240000000000000047e-01
2.464000000000000079e-01
2.816000000000000170e-01
2.752000000000000002e-01
2.687999999999999834e-01
2.656000000000000028e-01
2.687999999999999834e-01
2.752000000000000002e-01
2.767999999999999905e-01
2.752000000000000002e-01
2.736000000000000099e-01
2.720000000000000195e-01
2.736000000000000099e-01
2.752000000000000002e-01
2.767999999999999905e-01
2.783999999999999808e-01
2.752000000000000002e-01
2.720000000000000195e-01
2.687999999999999834e-01
2.687999999999999834e-01
2.687999999999999834e-01
2.687999999999999834e-01
2.687999999999999834e-01
2.656000000000000028e-01
2.656000000000000028e-01
2.671999999999999931e-01
2.736000000000000099e-01
2.736000000000000099e-01
2.720000000000000195e-01
2.687999999999999834e-01
2.703999999999999737e-01
2.720000000000000195e-01
2.720000000000000195e-01
2.671999999999999931e-01
2.624000000000000221e-01
2.624000000000000221e-01
2.624000000000000221e-01
2.671999999999999931e-01
2.687999999999999834e-01
2.656000000000000028e-01
2.624000000000000221e-01
2.607999999999999763e-01
2.575999999999999956e-01
2.560000000000000053e-01
2.528000000000000247e-01
2.528000000000000247e-01
2.495999999999999885e-01
2.479999999999999982e-01
2.447999999999999898e-01
2.351999999999999924e-01
2.320000000000000118e-01
2.320000000000000118e-01
2.303999999999999937e-01
2.255999999999999950e-01
2.255999999999999950e-01
2.272000000000000131e-01
2.223999999999999866e-01
2.207999999999999963e-01
2.207999999999999963e-01
2.255999999999999950e-01
2.288000000000000034e-01
2.351999999999999924e-01
2.431999999999999995e-01
2.479999999999999982e-01
2.511999999999999789e-01
2.511999999999999789e-01
2.560000000000000053e-01
2.560000000000000053e-01
2.607999999999999763e-01
2.624000000000000221e-01
2.624000000000000221e-01
2.624000000000000221e-01
2.656000000000000028e-01
2.656000000000000028e-01
2.640000000000000124e-01
2.640000000000000124e-01
2.640000000000000124e-01
2.624000000000000221e-01
2.624000000000000221e-01
2.640000000000000124e-01
2.647999999999999798e-01
2.656000000000000028e-01
2.671999999999999931e-01
2.687999999999999834e-01
2.687999999999999834e-01
2.656000000000000028e-01
2.640000000000000124e-01
2.671999999999999931e-01
2.671999999999999931e-01
2.703999999999999737e-01
2.687999999999999834e-01
2.656000000000000028e-01
2.624000000000000221e-01
2.624000000000000221e-01
2.624000000000000221e-01
2.656000000000000028e-01
2.671999999999999931e-01
2.656000000000000028e-01
2.591999999999999860e-01
2.591999999999999860e-01
2.591999999999999860e-01
2.640000000000000124e-01
2.656000000000000028e-01
2.720000000000000195e-01
2.720000000000000195e-01
2.687999999999999834e-01
2.687999999999999834e-01
2.703999999999999737e-01
2.687999999999999834e-01
2.656000000000000028e-01
2.607999999999999763e-01
2.544000000000000150e-01
2.544000000000000150e-01
2.575999999999999956e-01
2.624000000000000221e-01
2.656000000000000028e-01
2.656000000000000028e-01
2.624000000000000221e-01
2.624000000000000221e-01
2.656000000000000028e-01
2.640000000000000124e-01
2.624000000000000221e-01
2.624000000000000221e-01
2.624000000000000221e-01
2.640000000000000124e-01
2.656000000000000028e-01
2.640000000000000124e-01
2.640000000000000124e-01
2.656000000000000028e-01
2.624000000000000221e-01
2.607999999999999763e-01
2.591999999999999860e-01
2.575999999999999956e-01
2.560000000000000053e-01
2.528000000000000247e-01
2.528000000000000247e-01
2.511999999999999789e-01
2.511999999999999789e-01
2.511999999999999789e-01
2.479999999999999982e-01
2.447999999999999898e-01
2.479999999999999982e-01
2.544000000000000150e-01
2.544000000000000150e-01
2.511999999999999789e-01
2.464000000000000079e-01
2.464000000000000079e-01
2.464000000000000079e-01
2.464000000000000079e-01
2.479999999999999982e-01
2.511999999999999789e-01
2.511999999999999789e-01
2.511999999999999789e-01
2.511999999999999789e-01
2.511999999999999789e-01
2.528000000000000247e-01
2.528000000000000247e-01
2.528000000000000247e-01
2.464000000000000079e-01
2.431999999999999995e-01
2.464000000000000079e-01
2.495999999999999885e-01
2.479999999999999982e-01
2.431999999999999995e-01
2.336000000000000021e-01
2.320000000000000118e-01
2.351999999999999924e-01
2.511999999999999789e-01
2.560000000000000053e-01
2.591999999999999860e-01
2.591999999999999860e-01
2.640000000000000124e-01
2.640000000000000124e-01
2.656000000000000028e-01
2.560000000000000053e-01
2.575999999999999956e-01
2.591999999999999860e-01
2.624000000000000221e-01
2.656000000000000028e-01
2.671999999999999931e-01
2.671999999999999931e-01
2.607999999999999763e-01
2.464000000000000079e-01
2.192000000000000060e-01
1.920000000000000040e-01
1.615999999999999936e-01
1.328000000000000014e-01
1.456000000000000072e-01
1.872000000000000053e-01
2.207999999999999963e-01
2.671999999999999931e-01
2.671999999999999931e-01
2.575999999999999956e-01
2.544000000000000150e-01
2.544000000000000150e-01
2.575999999999999956e-01
2.591999999999999860e-01
2.624000000000000221e-01
2.624000000000000221e-01
2.640000000000000124e-01
2.624000000000000221e-01
2.591999999999999860e-01
2.591999999999999860e-01
2.591999999999999860e-01
2.591999999999999860e-01
2.591999999999999860e-01
2.560000000000000053e-01
2.560000000000000053e-01
2.544000000000000150e-01
2.544000000000000150e-01
2.544000000000000150e-01
2.479999999999999982e-01
2.447999999999999898e-01
2.464000000000000079e-01
2.399999999999999911e-01
2.351999999999999924e-01
2.288000000000000034e-01
2.272000000000000131e-01
2.288000000000000034e-01
2.303999999999999937e-01
2.320000000000000118e-01
2.303999999999999937e-01
2.272000000000000131e-01
2.207999999999999963e-01
2.223999999999999866e-01
2.207999999999999963e-01
2.207999999999999963e-01
2.192000000000000060e-01
2.192000000000000060e-01
2.207999999999999963e-01
2.207999999999999963e-01
2.207999999999999963e-01
2.192000000000000060e-01
2.192000000000000060e-01
2.159999999999999976e-01
2.175999999999999879e-01
2.127999999999999892e-01
2.096000000000000085e-01
2.048000000000000098e-01
2.048000000000000098e-01
2.096000000000000085e-01
2.064000000000000001e-01
2.064000000000000001e-01
1.968000000000000027e-01
1.952000000000000124e-01
1.935999999999999943e-01
1.920000000000000040e-01
1.935999999999999943e-01
1.968000000000000027e-01
2.016000000000000014e-01
2.064000000000000001e-01
2.144000000000000072e-01
2.192000000000000060e-01
2.207999999999999963e-01
2.240000000000000047e-01
2.272000000000000131e-01
2.272000000000000131e-01
2.351999999999999924e-01
2.368000000000000105e-01
2.351999999999999924e-01
2.303999999999999937e-01
2.320000000000000118e-01
2.336000000000000021e-01
2.368000000000000105e-01
2.384000000000000008e-01
2.351999999999999924e-01
2.351999999999999924e-01
2.320000000000000118e-01
2.351999999999999924e-01
2.368000000000000105e-01
2.368000000000000105e-01
2.351999999999999924e-01
2.336000000000000021e-01
2.288000000000000034e-01
2.336000000000000021e-01
2.336000000000000021e-01
2.336000000000000021e-01
2.320000000000000118e-01
2.351999999999999924e-01
2.368000000000000105e-01
2.351999999999999924e-01
2.351999999999999924e-01
2.368000000000000105e-01
2.384000000000000008e-01
2.368000000000000105e-01
2.303999999999999937e-01
2.303999999999999937e-01
2.303999999999999937e-01
2.288000000000000034e-01
2.320000000000000118e-01
2.320000000000000118e-01
2.384000000000000008e-01
2.368000000000000105e-01
2.368000000000000105e-01
2.399999999999999911e-01
2.399999999999999911e-01
2.416000000000000092e-01
2.384000000000000008e-01
2.320000000000000118e-01
2.303999999999999937e-01
2.320000000000000118e-01
2.320000000000000118e-01
2.303999999999999937e-01
2.336000000000000021e-01
2.351999999999999924e-01
2.399999999999999911e-01
2.399999999999999911e-01
2.416000000000000092e-01
2.447999999999999898e-01
2.447999999999999898e-01
2.447999999999999898e-01
2.431999999999999995e-01
2.416000000000000092e-01
2.416000000000000092e-01
2.399999999999999911e-01
2.384000000000000008e-01
2.368000000000000105e-01
2.384000000000000008e-01
2.384000000000000008e-01
2.399999999999999911e-01
2.399999999999999911e-01
2.399999999999999911e-01
2.416000000000000092e-01
2.416000000000000092e-01
2.416000000000000092e-01
2.416000000000000092e-01
2.416000000000000092e-01
2.368000000000000105e-01
2.368000000000000105e-01
2.399999999999999911e-01
2.399999999999999911e-01
2.416000000000000092e-01
2.399999999999999911e-01
2.384000000000000008e-01
2.351999999999999924e-01
2.336000000000000021e-01
2.336000000000000021e-01
2.336000000000000021e-01
2.320000000000000118e-01
2.288000000000000034e-01
2.272000000000000131e-01
2.272000000000000131e-01
2.272000000000000131e-01
2.288000000000000034e-01
2.288000000000000034e-01
2.272000000000000131e-01
2.255999999999999950e-01
2.303999999999999937e-01
2.351999999999999924e-01
2.368000000000000105e-01
2.368000000000000105e-01
2.384000000000000008e-01
2.399999999999999911e-01
2.416000000000000092e-01
2.416000000000000092e-01
2.416000000000000092e-01
2.391999999999999960e-01
2.368000000000000105e-01
2.368000000000000105e-01
2.384000000000000008e-01
2.447999999999999898e-01
2.431999999999999995e-01
2.336000000000000021e-01
2.144000000000000072e-01
1.983999999999999930e-01
1.759999999999999898e-01
1.615999999999999936e-01
1.839999999999999969e-01
2.240000000000000047e-01
2.447999999999999898e-01
2.783999999999999808e-01
2.656000000000000028e-01
2.528000000000000247e-01
2.368000000000000105e-01
2.351999999999999924e-01
2.399999999999999911e-01
2.447999999999999898e-01
2.416000000000000092e-01
2.384000000000000008e-01
2.384000000000000008e-01
2.399999999999999911e-01
2.399999999999999911e-01
2.399999999999999911e-01
2.399999999999999911e-01
2.416000000000000092e-01
2.479999999999999982e-01
2.495999999999999885e-01
2.447999999999999898e-01
2.431999999999999995e-01
2.368000000000000105e-01
2.351999999999999924e-01
2.351999999999999924e-01
2.464000000000000079e-01
2.464000000000000079e-01
2.464000000000000079e-01
2.464000000000000079e-01
2.495999999999999885e-01
2.511999999999999789e-01
3.599999999999999867e-01
3.648000000000000131e-01
3.728000000000000203e-01
3.775999999999999912e-01
3.840000000000000080e-01
3.951999999999999957e-01
4.063999999999999835e-01
4.112000000000000099e-01
4.143999999999999906e-01
4.112000000000000099e-01
4.063999999999999835e-01
3.967999999999999861e-01
3.871999999999999886e-01
3.824000000000000177e-01
3.711999999999999744e-01
3.615999999999999770e-01
3.583999999999999964e-01
3.552000000000000157e-01
2.159999999999999976e-01
2.175999999999999879e-01
3.615999999999999770e-01
3.632000000000000228e-01
3.615999999999999770e-01
3.840000000000000080e-01
4.032000000000000028e-01
3.808000000000000274e-01
3.967999999999999861e-01
3.936000000000000054e-01
3.904000000000000248e-01
3.744000000000000106e-01
3.808000000000000274e-01
3.744000000000000106e-01
3.744000000000000106e-01
3.728000000000000203e-01
2.303999999999999937e-01
2.272000000000000131e-01
2.272000000000000131e-01
2.272000000000000131e-01
2.272000000000000131e-01
2.272000000000000131e-01
2.320000000000000118e-01
2.368000000000000105e-01
2.399999999999999911e-01
2.416000000000000092e-01
2.416000000000000092e-01
2.416000000000000092e-01
2.416000000000000092e-01
2.399999999999999911e-01
2.399999999999999911e-01
2.399999999999999911e-01
2.399999999999999911e-01
2.399999999999999911e-01
2.384000000000000008e-01
2.368000000000000105e-01
2.368000000000000105e-01
2.368000000000000105e-01
2.368000000000000105e-01
2.368000000000000105e-01
2.336000000000000021e-01
2.320000000000000118e-01
2.320000000000000118e-01
2.320000000000000118e-01
2.320000000000000118e-01
2.303999999999999937e-01
2.303999999999999937e-01
2.303999999999999937e-01
2.303999999999999937e-01
2.303999999999999937e-01
2.320000000000000118e-01
2.320000000000000118e-01
2.336000000000000021e-01
2.336000000000000021e-01
2.351999999999999924e-01
2.351999999999999924e-01
2.351999999999999924e-01
2.351999999999999924e-01
2.359999999999999876e-01
2.368000000000000105e-01
2.368000000000000105e-01
2.384000000000000008e-01
2.384000000000000008e-01
2.384000000000000008e-01
2.384000000000000008e-01
2.384000000000000008e-01
2.384000000000000008e-01
2.399999999999999911e-01
2.399999999999999911e-01
2.399999999999999911e-01
2.399999999999999911e-01
2.368000000000000105e-01
2.368000000000000105e-01
2.368000000000000105e-01
2.368000000000000105e-01
2.368000000000000105e-01
2.368000000000000105e-01
2.368000000000000105e-01
2.368000000000000105e-01
2.368000000000000105e-01
2.368000000000000105e-01
2.368000000000000105e-01
2.368000000000000105e-01
2.384000000000000008e-01
2.384000000000000008e-01
2.399999999999999911e-01
2.399999999999999911e-01
2.399999999999999911e-01
2.416000000000000092e-01
2.416000000000000092e-01
2.416000000000000092e-01
2.416000000000000092e-01
2.416000000000000092e-01
2.399999999999999911e-01
2.384000000000000008e-01
2.368000000000000105e-01
2.368000000000000105e-01
2.359999999999999876e-01
2.351999999999999924e-01
2.351999999999999924e-01
2.351999999999999924e-01
2.336000000000000021e-01
2.336000000000000021e-01
2.320000000000000118e-01
2.288000000000000034e-01
2.240000000000000047e-01
2.240000000000000047e-01
2.240000000000000047e-01
2.255999999999999950e-01
2.303999999999999937e-01
2.368000000000000105e-01
2.399999999999999911e-01
2.399999999999999911e-01
2.384000000000000008e-01
2.399999999999999911e-01
2.399999999999999911e-01
2.399999999999999911e-01
2.399999999999999911e-01
2.399999999999999911e-01
2.399999999999999911e-01
2.416000000000000092e-01
2.416000000000000092e-01
2.416000000000000092e-01
2.399999999999999911e-01
2.272000000000000131e-01
2.255999999999999950e-01
2.159999999999999976e-01
2.159999999999999976e-01
9.919999999999999929e-01
9.759999999999999787e-01
9.088000000000000522e-01
3.024000000000000021e-01
4.032000000000000028e-01
4.719999999999999751e-01
4.480000000000000093e-01
3.904000000000000248e-01
3.552000000000000157e-01
2.544000000000000150e-01
2.351999999999999924e-01
2.240000000000000047e-01
2.303999999999999937e-01
2.336000000000000021e-01
2.336000000000000021e-01
2.320000000000000118e-01
2.320000000000000118e-01
2.320000000000000118e-01
2.320000000000000118e-01
2.320000000000000118e-01
2.320000000000000118e-01
2.320000000000000118e-01
2.320000000000000118e-01
2.320000000000000118e-01
2.320000000000000118e-01
2.303999999999999937e-01
2.288000000000000034e-01
2.272000000000000131e-01
2.255999999999999950e-01
2.255999999999999950e-01
2.255999999999999950e-01
2.255999999999999950e-01
2.255999999999999950e-01
2.255999999999999950e-01
2.255999999999999950e-01
2.255999999999999950e-01
2.255999999999999950e-01
2.240000000000000047e-01
2.223999999999999866e-01
2.192000000000000060e-01
2.192000000000000060e-01
2.192000000000000060e-01
2.175999999999999879e-01
2.175999999999999879e-01
2.175999999999999879e-01
2.175999999999999879e-01
2.144000000000000072e-01
2.144000000000000072e-01
2.127999999999999892e-01
2.096000000000000085e-01
2.079999999999999905e-01
2.064000000000000001e-01
2.064000000000000001e-01
2.064000000000000001e-01
2.079999999999999905e-01
2.079999999999999905e-01
2.079999999999999905e-01
2.096000000000000085e-01
2.111999999999999988e-01
2.111999999999999988e-01
2.127999999999999892e-01
2.127999999999999892e-01
2.144000000000000072e-01
2.144000000000000072e-01
2.159999999999999976e-01
2.175999999999999879e-01
2.175999999999999879e-01
2.192000000000000060e-01
2.207999999999999963e-01
2.207999999999999963e-01
2.240000000000000047e-01
2.255999999999999950e-01
2.303999999999999937e-01
2.336000000000000021e-01
2.368000000000000105e-01
2.399999999999999911e-01
2.399999999999999911e-01
2.416000000000000092e-01
2.416000000000000092e-01
2.399999999999999911e-01
2.399999999999999911e-01
2.399999999999999911e-01
2.416000000000000092e-01
2.416000000000000092e-01
2.416000000000000092e-01
2.416000000000000092e-01
2.416000000000000092e-01
2.416000000000000092e-01
2.407999999999999863e-01
2.399999999999999911e-01
2.399999999999999911e-01
2.384000000000000008e-01
2.384000000000000008e-01
2.384000000000000008e-01
2.384000000000000008e-01
2.384000000000000008e-01
2.384000000000000008e-01
2.384000000000000008e-01
2.384000000000000008e-01
2.384000000000000008e-01
2.384000000000000008e-01
2.368000000000000105e-01
2.368000000000000105e-01
2.368000000000000105e-01
2.368000000000000105e-01
2.368000000000000105e-01
2.368000000000000105e-01
2.368000000000000105e-01
2.368000000000000105e-01
2.368000000000000105e-01
2.368000000000000105e-01
2.368000000000000105e-01
2.368000000000000105e-01
2.399999999999999911e-01
2.399999999999999911e-01
2.416000000000000092e-01
2.416000000000000092e-01
2.416000000000000092e-01
2.447999999999999898e-01
2.464000000000000079e-01
2.464000000000000079e-01
2.464000000000000079e-01
2.511999999999999789e-01
2.511999999999999789e-01
2.511999999999999789e-01
2.511999999999999789e-01
2.511999999999999789e-01
2.535999999999999921e-01
2.560000000000000053e-01
2.560000000000000053e-01
2.560000000000000053e-01
2.575999999999999956e-01
2.575999999999999956e-01
2.591999999999999860e-01
2.607999999999999763e-01
2.640000000000000124e-01
2.640000000000000124e-01
2.640000000000000124e-01
2.640000000000000124e-01
2.640000000000000124e-01
2.640000000000000124e-01
2.640000000000000124e-01
2.640000000000000124e-01
2.640000000000000124e-01
2.640000000000000124e-01
2.624000000000000221e-01
2.624000000000000221e-01
2.624000000000000221e-01
2.607999999999999763e-01
2.607999999999999763e-01
2.607999999999999763e-01
2.591999999999999860e-01
2.591999999999999860e-01
2.591999999999999860e-01
2.575999999999999956e-01
2.591999999999999860e-01
2.591999999999999860e-01
2.591999999999999860e-01
2.560000000000000053e-01
2.528000000000000247e-01
2.511999999999999789e-01
2.511999999999999789e-01
2.528000000000000247e-01
2.607999999999999763e-01
2.656000000000000028e-01
2.720000000000000195e-01
2.736000000000000099e-01
2.736000000000000099e-01
2.720000000000000195e-01
2.720000000000000195e-01
2.703999999999999737e-01
2.703999999999999737e-01
2.703999999999999737e-01
2.687999999999999834e-01
2.687999999999999834e-01
2.687999999999999834e-01
2.671999999999999931e-01
2.656000000000000028e-01
2.624000000000000221e-01
2.591999999999999860e-01
2.544000000000000150e-01
2.479999999999999982e-01
2.351999999999999924e-01
2.288000000000000034e-01
1.000000000000000000e+00
2.847999999999999976e-01
3.343999999999999750e-01
4.159999999999999809e-01
4.975999999999999868e-01
4.912000000000000255e-01
4.335999999999999854e-01
3.791999999999999815e-01
3.104000000000000092e-01
2.671999999999999931e-01
2.544000000000000150e-01
2.575999999999999956e-01
2.624000000000000221e-01
2.624000000000000221e-01
2.624000000000000221e-01
2.607999999999999763e-01
2.607999999999999763e-01
2.607999999999999763e-01
2.591999999999999860e-01
2.591999999999999860e-01
2.591999999999999860e-01
2.591999999999999860e-01
2.584000000000000186e-01
2.575999999999999956e-01
2.560000000000000053e-01
2.560000000000000053e-01
2.544000000000000150e-01
2.544000000000000150e-01
2.528000000000000247e-01
2.528000000000000247e-01
2.528000000000000247e-01
2.511999999999999789e-01
2.511999999999999789e-01
2.511999999999999789e-01
2.464000000000000079e-01
2.464000000000000079e-01
2.416000000000000092e-01
2.399999999999999911e-01
2.399999999999999911e-01
2.399999999999999911e-01
2.416000000000000092e-01
2.399999999999999911e-01
2.399999999999999911e-01
2.368000000000000105e-01
2.368000000000000105e-01
2.368000000000000105e-01
2.351999999999999924e-01
2.320000000000000118e-01
2.303999999999999937e-01
2.288000000000000034e-01
2.272000000000000131e-01
2.240000000000000047e-01
2.223999999999999866e-01
2.207999999999999963e-01
2.223999999999999866e-01
2.223999999999999866e-01
2.223999999999999866e-01
2.240000000000000047e-01
2.240000000000000047e-01
2.255999999999999950e-01
2.303999999999999937e-01
2.351999999999999924e-01
2.368000000000000105e-01
2.399999999999999911e-01
2.399999999999999911e-01
2.399999999999999911e-01
2.416000000000000092e-01
2.416000000000000092e-01
2.464000000000000079e-01
2.464000000000000079e-01
2.479999999999999982e-01
2.511999999999999789e-01
2.544000000000000150e-01
2.575999999999999956e-01
2.591999999999999860e-01
2.607999999999999763e-01
2.624000000000000221e-01
2.640000000000000124e-01
2.656000000000000028e-01
2.687999999999999834e-01
2.687999999999999834e-01
2.687999999999999834e-01
2.687999999999999834e-01
2.687999999999999834e-01
2.671999999999999931e-01
2.656000000000000028e-01
2.656000000000000028e-01
2.656000000000000028e-01
2.656000000000000028e-01
2.640000000000000124e-01
2.640000000000000124e-01
2.624000000000000221e-01
2.624000000000000221e-01
2.656000000000000028e-01
2.671999999999999931e-01
2.687999999999999834e-01
2.687999999999999834e-01
2.671999999999999931e-01
2.656000000000000028e-01
2.656000000000000028e-01
2.640000000000000124e-01
2.624000000000000221e-01
2.624000000000000221e-01
2.624000000000000221e-01
2.640000000000000124e-01
2.656000000000000028e-01
2.656000000000000028e-01
2.656000000000000028e-01
2.656000000000000028e-01
2.671999999999999931e-01
2.671999999999999931e-01
2.687999999999999834e-01
2.687999999999999834e-01
2.703999999999999737e-01
2.703999999999999737e-01
2.703999999999999737e-01
2.703999999999999737e-01
2.703999999999999737e-01
2.703999999999999737e-01
2.703999999999999737e-01
2.703999999999999737e-01
2.703999999999999737e-01
2.720000000000000195e-01
2.736000000000000099e-01
2.752000000000000002e-01
2.752000000000000002e-01
2.752000000000000002e-01
2.752000000000000002e-01
2.752000000000000002e-01
2.752000000000000002e-01
2.752000000000000002e-01
2.752000000000000002e-01
2.752000000000000002e-01
2.752000000000000002e-01
2.752000000000000002e-01
2.752000000000000002e-01
2.752000000000000002e-01
2.752000000000000002e-01
2.752000000000000002e-01
2.752000000000000002e-01
2.736000000000000099e-01
2.752000000000000002e-01
2.767999999999999905e-01
2.767999999999999905e-01
2.752000000000000002e-01
2.752000000000000002e-01
2.752000000000000002e-01
2.736000000000000099e-01
2.736000000000000099e-01
2.720000000000000195e-01
2.720000000000000195e-01
2.720000000000000195e-01
2.703999999999999737e-01
2.687999999999999834e-01
2.687999999999999834e-01
2.640000000000000124e-01
2.464000000000000079e-01
2.464000000000000079e-01
2.464000000000000079e-01
2.464000000000000079e-01
2.464000000000000079e-01
2.528000000000000247e-01
3.632000000000000228e-01
3.648000000000000131e-01
3.728000000000000203e-01
3.808000000000000274e-01
3.887999999999999790e-01
3.967999999999999861e-01
4.032000000000000028e-01
4.096000000000000196e-01
4.143999999999999906e-01
4.096000000000000196e-01
4.047999999999999932e-01
3.951999999999999957e-01
3.855999999999999983e-01
3.775999999999999912e-01
3.695999999999999841e-01
3.632000000000000228e-01
3.568000000000000060e-01
3.104000000000000092e-01
2.591999999999999860e-01
2.368000000000000105e-01
2.223999999999999866e-01
2.127999999999999892e-01
1.807999999999999885e-01
1.600000000000000033e-01
3.775999999999999912e-01
1.776000000000000079e-01
2.048000000000000098e-01
2.384000000000000008e-01
2.832000000000000073e-01
3.583999999999999964e-01
3.583999999999999964e-01
3.871999999999999886e-01
3.904000000000000248e-01
3.951999999999999957e-01
3.967999999999999861e-01
2.607999999999999763e-01
2.591999999999999860e-01
2.591999999999999860e-01
2.575999999999999956e-01
2.575999999999999956e-01
2.560000000000000053e-01
2.560000000000000053e-01
2.560000000000000053e-01
2.544000000000000150e-01
2.544000000000000150e-01
2.528000000000000247e-01
2.528000000000000247e-01
2.528000000000000247e-01
2.511999999999999789e-01
2.511999999999999789e-01
2.511999999999999789e-01
2.511999999999999789e-01
2.511999999999999789e-01
2.511999999999999789e-01
2.479999999999999982e-01
2.479999999999999982e-01
2.479999999999999982e-01
2.464000000000000079e-01
2.447999999999999898e-01
2.464000000000000079e-01
2.464000000000000079e-01
2.439999999999999947e-01
2.416000000000000092e-01
2.416000000000000092e-01
2.416000000000000092e-01
2.399999999999999911e-01
2.368000000000000105e-01
2.368000000000000105e-01
2.336000000000000021e-01
2.336000000000000021e-01
2.336000000000000021e-01
2.320000000000000118e-01
2.288000000000000034e-01
2.255999999999999950e-01
2.240000000000000047e-01
2.207999999999999963e-01
2.207999999999999963e-01
2.207999999999999963e-01
2.192000000000000060e-01
2.175999999999999879e-01
2.175999999999999879e-01
2.175999999999999879e-01
2.192000000000000060e-01
2.207999999999999963e-01
2.207999999999999963e-01
2.207999999999999963e-01
2.223999999999999866e-01
2.240000000000000047e-01
2.240000000000000047e-01
2.255999999999999950e-01
2.272000000000000131e-01
2.272000000000000131e-01
2.288000000000000034e-01
2.303999999999999937e-01
2.320000000000000118e-01
2.320000000000000118e-01
2.336000000000000021e-01
2.351999999999999924e-01
2.351999999999999924e-01
2.368000000000000105e-01
2.368000000000000105e-01
2.384000000000000008e-01
2.399999999999999911e-01
2.399999999999999911e-01
2.399999999999999911e-01
2.416000000000000092e-01
2.416000000000000092e-01
2.416000000000000092e-01
2.447999999999999898e-01
2.464000000000000079e-01
2.464000000000000079e-01
2.464000000000000079e-01
2.495999999999999885e-01
2.511999999999999789e-01
2.511999999999999789e-01
2.464000000000000079e-01
2.464000000000000079e-01
2.464000000000000079e-01
2.464000000000000079e-01
2.447999999999999898e-01
2.416000000000000092e-01
2.416000000000000092e-01
2.416000000000000092e-01
2.399999999999999911e-01
2.399999999999999911e-01
2.416000000000000092e-01
2.416000000000000092e-01
2.416000000000000092e-01
2.416000000000000092e-01
2.416000000000000092e-01
2.416000000000000092e-01
2.431999999999999995e-01
2.447999999999999898e-01
2.447999999999999898e-01
2.447999999999999898e-01
2.464000000000000079e-01
2.479999999999999982e-01
2.464000000000000079e-01
2.464000000000000079e-01
2.464000000000000079e-01
2.464000000000000079e-01
2.464000000000000079e-01
2.479999999999999982e-01
2.479999999999999982e-01
2.490666666666666862e-01
2.501333333333333186e-01
2.511999999999999789e-01
2.511999999999999789e-01
2.511999999999999789e-01
2.511999999999999789e-01
2.511999999999999789e-01
2.528000000000000247e-01
2.528000000000000247e-01
2.528000000000000247e-01
2.528000000000000247e-01
2.544000000000000150e-01
2.544000000000000150e-01
2.544000000000000150e-01
2.560000000000000053e-01
2.560000000000000053e-01
2.560000000000000053e-01
2.560000000000000053e-01
2.560000000000000053e-01
2.560000000000000053e-01
2.575999999999999956e-01
2.575999999999999956e-01
2.575999999999999956e-01
2.560000000000000053e-01
2.560000000000000053e-01
2.560000000000000053e-01
2.560000000000000053e-01
2.560000000000000053e-01
2.544000000000000150e-01
2.544000000000000150e-01
2.544000000000000150e-01
2.544000000000000150e-01
2.544000000000000150e-01
2.528000000000000247e-01
2.528000000000000247e-01
2.528000000000000247e-01
2.464000000000000079e-01
2.399999999999999911e-01
2.399999999999999911e-01
2.416000000000000092e-01
2.416000000000000092e-01
2.416000000000000092e-01
2.528000000000000247e-01
2.544000000000000150e-01
2.560000000000000053e-01
2.575999999999999956e-01
2.575999999999999956e-01
2.575999999999999956e-01
2.575999999999999956e-01
2.591999999999999860e-01
2.607999999999999763e-01
2.607999999999999763e-01
2.624000000000000221e-01
2.624000000000000221e-01
2.624000000000000221e-01
2.640000000000000124e-01
2.624000000000000221e-01
2.575999999999999956e-01
2.447999999999999898e-01
2.288000000000000034e-01
2.079999999999999905e-01
1.776000000000000079e-01
1.519999999999999962e-01
1.343999999999999917e-01
5.520000000000000462e-01
1.839999999999999969e-01
2.016000000000000014e-01
2.464000000000000079e-01
2.783999999999999808e-01
2.783999999999999808e-01
2.736000000000000099e-01
2.671999999999999931e-01
2.671999999999999931e-01
2.656000000000000028e-01
2.656000000000000028e-01
2.640000000000000124e-01
2.640000000000000124e-01
2.624000000000000221e-01
2.624000000000000221e-01
2.607999999999999763e-01
2.607999999999999763e-01
2.591999999999999860e-01
2.591999999999999860e-01
2.575999999999999956e-01
2.575999999999999956e-01
2.575999999999999956e-01
2.575999999999999956e-01
2.575999999999999956e-01
2.575999999999999956e-01
2.575999999999999956e-01
2.575999999999999956e-01
2.575999999999999956e-01
2.575999999999999956e-01
2.575999999999999956e-01
2.560000000000000053e-01
2.560000000000000053e-01
2.560000000000000053e-01
2.560000000000000053e-01
2.544000000000000150e-01
2.544000000000000150e-01
2.528000000000000247e-01
2.528000000000000247e-01
2.528000000000000247e-01
2.511999999999999789e-01
2.511999999999999789e-01
2.511999999999999789e-01
2.511999999999999789e-01
2.479999999999999982e-01
2.479999999999999982e-01
2.464000000000000079e-01
2.447999999999999898e-01
2.447999999999999898e-01
2.416000000000000092e-01
2.416000000000000092e-01
2.416000000000000092e-01
2.399999999999999911e-01
2.399999999999999911e-01
2.384000000000000008e-01
2.384000000000000008e-01
2.384000000000000008e-01
2.368000000000000105e-01
2.368000000000000105e-01
2.368000000000000105e-01
2.368000000000000105e-01
2.351999999999999924e-01
2.368000000000000105e-01
2.384000000000000008e-01
2.399999999999999911e-01
2.416000000000000092e-01
2.416000000000000092e-01
2.528000000000000247e-01
2.528000000000000247e-01
2.560000000000000053e-01
2.560000000000000053e-01
2.560000000000000053e-01
2.591999999999999860e-01
2.624000000000000221e-01
2.624000000000000221e-01
2.656000000000000028e-01
2.671999999999999931e-01
2.671999999999999931e-01
2.671999999999999931e-01
2.671999999999999931e-01
2.671999999999999931e-01
2.687999999999999834e-01
2.687999999999999834e-01
2.687999999999999834e-01
2.687999999999999834e-01
2.687999999999999834e-01
2.703999999999999737e-01
2.720000000000000195e-01
2.720000000000000195e-01
2.720000000000000195e-01
2.687999999999999834e-01
2.687999999999999834e-01
2.671999999999999931e-01
2.656000000000000028e-01
2.656000000000000028e-01
2.656000000000000028e-01
2.640000000000000124e-01
2.640000000000000124e-01
2.624000000000000221e-01
2.624000000000000221e-01
2.624000000000000221e-01
2.607999999999999763e-01
2.607999999999999763e-01
2.607999999999999763e-01
2.624000000000000221e-01
2.624000000000000221e-01
2.624000000000000221e-01
2.624000000000000221e-01
2.624000000000000221e-01
2.624000000000000221e-01
2.624000000000000221e-01
2.624000000000000221e-01
2.624000000000000221e-01
2.624000000000000221e-01
2.624000000000000221e-01
2.624000000000000221e-01
2.624000000000000221e-01
2.624000000000000221e-01
2.624000000000000221e-01
2.624000000000000221e-01
2.624000000000000221e-01
2.624000000000000221e-01
2.624000000000000221e-01
2.624000000000000221e-01
2.624000000000000221e-01
2.631999999999999895e-01
2.640000000000000124e-01
2.640000000000000124e-01
2.640000000000000124e-01
2.640000000000000124e-01
2.640000000000000124e-01
2.640000000000000124e-01
2.640000000000000124e-01
2.640000000000000124e-01
2.640000000000000124e-01
2.640000000000000124e-01
2.624000000000000221e-01
2.624000000000000221e-01
2.624000000000000221e-01
2.624000000000000221e-01
2.624000000000000221e-01
2.624000000000000221e-01
2.607999999999999763e-01
2.607999999999999763e-01
2.607999999999999763e-01
2.607999999999999763e-01
2.607999999999999763e-01
2.607999999999999763e-01
2.591999999999999860e-01
2.591999999999999860e-01
2.591999999999999860e-01
2.575999999999999956e-01
2.575999999999999956e-01
2.544000000000000150e-01
2.528000000000000247e-01
2.479999999999999982e-01
2.447999999999999898e-01
2.399999999999999911e-01
2.399999999999999911e-01
2.399999999999999911e-01
2.399999999999999911e-01
2.416000000000000092e-01
2.416000000000000092e-01
2.416000000000000092e-01
2.416000000000000092e-01
2.447999999999999898e-01
2.479999999999999982e-01
2.495999999999999885e-01
2.528000000000000247e-01
2.544000000000000150e-01
2.575999999999999956e-01
2.575999999999999956e-01
2.575999999999999956e-01
2.575999999999999956e-01
2.575999999999999956e-01
2.575999999999999956e-01
2.575999999999999956e-01
2.575999999999999956e-01
2.575999999999999956e-01
2.511999999999999789e-01
2.351999999999999924e-01
2.192000000000000060e-01
1.968000000000000027e-01
1.648000000000000020e-01
1.456000000000000072e-01
9.759999999999999787e-01
1.391999999999999904e-01
1.824000000000000066e-01
1.968000000000000027e-01
