1.943793911007025699e-01
1.943793911007025699e-01
1.996411083062137048e-01
2.049028255117248676e-01
2.101645427172358638e-01
2.154262599227470265e-01
2.206879771282581615e-01
2.259496943337692965e-01
2.312114115392804314e-01
2.364731287447914554e-01
2.417348459503025904e-01
2.469965631558137253e-01
2.522582803613248603e-01
2.575199975668360231e-01
2.627817147723470192e-01
2.680434319778581820e-01
2.733051491833692892e-01
2.785668663888804519e-01
2.838285835943916147e-01
2.890903007999026109e-01
2.943520180054137736e-01
2.996137352109248808e-01
3.048754524164360435e-01
3.101371696219471508e-01
3.153988868274582025e-01
3.206606040329693097e-01
3.259223212384804724e-01
3.311840384439916352e-01
3.364457556495027424e-01
3.417074728550137386e-01
3.469691900605249013e-01
3.522309072660360640e-01
3.574926244715471713e-01
3.627543416770583340e-01
3.680160588825693302e-01
3.732777760880804929e-01
3.785394932935916557e-01
3.838012104991027629e-01
3.890629277046139256e-01
3.943246449101249218e-01
3.995863621156361956e-01
4.048480793211471918e-01
4.101097965266583545e-01
4.153715137321695172e-01
4.206332309376805134e-01
4.258949481431917872e-01
4.311566653487027834e-01
4.364183825542137796e-01
4.416800997597250533e-01
4.469418169652361050e-01
4.522035341707473788e-01
4.574652513762583750e-01
4.627269685817696487e-01
4.679886857872806449e-01
4.732504029927916411e-01
4.785121201983029149e-01
4.837738374038139666e-01
4.890355546093249628e-01
4.942972718148362365e-01
4.995589890203472327e-01
5.048207062258585065e-01
5.100824234313695582e-01
5.153441406368808320e-01
5.206058578423917726e-01
5.258675750479028244e-01
5.311292922534140981e-01
5.363910094589251498e-01
5.416527266644360905e-01
5.469144438699473643e-01
5.521761610754584160e-01
5.574378782809696897e-01
5.626995954864806304e-01
5.679613126919919042e-01
5.732230298975029559e-01
5.784847471030140076e-01
5.837464643085252813e-01
5.890081815140362220e-01
5.942698987195472737e-01
5.995316159250585475e-01
4.168618266978922904e-01
4.145199063231850278e-01
4.121779859484777653e-01
2.318501170960187430e-01
2.318501170960187430e-01
2.318501170960187430e-01
2.318501170960187430e-01
2.318501170960187430e-01
2.318501170960187430e-01
2.318501170960187430e-01
2.318501170960187430e-01
2.318501170960187430e-01
2.318501170960187430e-01
2.318501170960187430e-01
2.318501170960187430e-01
2.318501170960187430e-01
2.318501170960187430e-01
2.318501170960187430e-01
2.318501170960187430e-01
2.318501170960187430e-01
2.318501170960187430e-01
2.318501170960187430e-01
2.318501170960187430e-01
2.318501170960187430e-01
2.318501170960187430e-01
2.318501170960187430e-01
2.318501170960187430e-01
2.318501170960187430e-01
2.318501170960187430e-01
2.318501170960187430e-01
2.318501170960187430e-01
2.318501170960187430e-01
2.318501170960187430e-01
2.318501170960187430e-01
2.318501170960187430e-01
2.318501170960187430e-01
2.318501170960187430e-01
2.318501170960187430e-01
2.318501170960187430e-01
4.121779859484777653e-01
4.145199063231850278e-01
4.215456674473068155e-01
5.878220140515222347e-01
8.009367681498829050e-01
8.009367681498829050e-01
8.009367681498829050e-01
6.323185011709602232e-01
6.346604215456674858e-01
6.370023419203747483e-01
6.393442622950820109e-01
6.393442622950820109e-01
6.393442622950820109e-01
6.393442622950820109e-01
6.393442622950820109e-01
6.393442622950820109e-01
6.393442622950820109e-01
6.370023419203747483e-01
6.370023419203747483e-01
6.346604215456674858e-01
6.323185011709602232e-01
6.323185011709602232e-01
6.323185011709602232e-01
6.299765807962529607e-01
6.299765807962529607e-01
6.276346604215456981e-01
6.276346604215456981e-01
6.276346604215456981e-01
6.276346604215456981e-01
6.252927400468384356e-01
6.252927400468384356e-01
6.252927400468384356e-01
6.252927400468384356e-01
6.252927400468384356e-01
6.252927400468384356e-01
6.252927400468384356e-01
6.252927400468384356e-01
6.252927400468384356e-01
6.252927400468384356e-01
6.252927400468384356e-01
6.276346604215456981e-01
6.276346604215456981e-01
6.276346604215456981e-01
6.252927400468384356e-01
6.252927400468384356e-01
6.206088992974239105e-01
6.159250585480093854e-01
6.112412177985948603e-01
6.112412177985948603e-01
6.112412177985948603e-01
6.112412177985948603e-01
6.112412177985948603e-01
6.135831381733021228e-01
6.135831381733021228e-01
6.135831381733021228e-01
6.159250585480093854e-01
6.159250585480093854e-01
6.112412177985948603e-01
6.065573770491803351e-01
6.042154566744730726e-01
6.042154566744730726e-01
6.065573770491803351e-01
6.088992974238875977e-01
6.159250585480093854e-01
6.229508196721311730e-01
6.299765807962529607e-01
6.299765807962529607e-01
6.323185011709602232e-01
6.323185011709602232e-01
6.370023419203747483e-01
6.346604215456674858e-01
6.416861826697892734e-01
6.557377049180327377e-01
6.697892271662763131e-01
6.346604215456674858e-01
5.620608899297423466e-01
4.426229508196721230e-01
2.997658079625292737e-01
1.639344262295081844e-01
5.152224824355972066e-02
0.000000000000000000e+00
8.196721311475409222e-02
2.131147540983606425e-01
3.583138173302107821e-01
4.683840749414520110e-01
5.901639344262294973e-01
6.393442622950820109e-01
6.346604215456674858e-01
6.276346604215456981e-01
6.346604215456674858e-01
6.416861826697892734e-01
6.463700234192037986e-01
6.416861826697892734e-01
6.416861826697892734e-01
6.440281030444965360e-01
6.463700234192037986e-01
6.463700234192037986e-01
6.463700234192037986e-01
6.463700234192037986e-01
6.416861826697892734e-01
6.393442622950820109e-01
6.393442622950820109e-01
6.393442622950820109e-01
6.370023419203747483e-01
6.323185011709602232e-01
6.323185011709602232e-01
6.323185011709602232e-01
6.323185011709602232e-01
6.323185011709602232e-01
6.323185011709602232e-01
6.299765807962529607e-01
6.299765807962529607e-01
6.299765807962529607e-01
6.323185011709602232e-01
6.323185011709602232e-01
6.323185011709602232e-01
6.323185011709602232e-01
6.299765807962529607e-01
6.276346604215456981e-01
6.206088992974239105e-01
6.135831381733021228e-01
6.112412177985948603e-01
6.088992974238875977e-01
6.042154566744730726e-01
5.995316159250585475e-01
5.925058548009367598e-01
5.807962529274004471e-01
5.690866510538641343e-01
5.573770491803278215e-01
5.503512880562060339e-01
5.362997658079625696e-01
5.292740046838407819e-01
5.128805620608899440e-01
5.081967213114754189e-01
5.035128805620608938e-01
5.035128805620608938e-01
5.035128805620608938e-01
5.035128805620608938e-01
5.081967213114754189e-01
5.152224824355972066e-01
5.292740046838407819e-01
5.339578454332553070e-01
5.503512880562060339e-01
5.573770491803278215e-01
5.644028103044496092e-01
5.737704918032786594e-01
5.807962529274004471e-01
5.901639344262294973e-01
5.948477751756440224e-01
6.018735362997658100e-01
6.112412177985948603e-01
6.112412177985948603e-01
6.135831381733021228e-01
6.159250585480093854e-01
6.159250585480093854e-01
6.159250585480093854e-01
6.159250585480093854e-01
6.159250585480093854e-01
6.159250585480093854e-01
6.182669789227166479e-01
6.206088992974239105e-01
6.229508196721311730e-01
6.229508196721311730e-01
6.229508196721311730e-01
6.229508196721311730e-01
6.252927400468384356e-01
6.252927400468384356e-01
6.252927400468384356e-01
6.229508196721311730e-01
6.229508196721311730e-01
6.229508196721311730e-01
6.229508196721311730e-01
6.229508196721311730e-01
6.206088992974239105e-01
6.206088992974239105e-01
6.206088992974239105e-01
6.182669789227166479e-01
6.182669789227166479e-01
6.182669789227166479e-01
6.182669789227166479e-01
6.159250585480093854e-01
6.135831381733021228e-01
6.135831381733021228e-01
6.135831381733021228e-01
6.112412177985948603e-01
6.112412177985948603e-01
6.112412177985948603e-01
6.112412177985948603e-01
6.112412177985948603e-01
6.088992974238875977e-01
6.088992974238875977e-01
6.088992974238875977e-01
6.135831381733021228e-01
6.159250585480093854e-01
6.182669789227166479e-01
6.182669789227166479e-01
6.206088992974239105e-01
6.206088992974239105e-01
6.229508196721311730e-01
6.206088992974239105e-01
6.206088992974239105e-01
6.229508196721311730e-01
6.229508196721311730e-01
6.252927400468384356e-01
6.252927400468384356e-01
6.252927400468384356e-01
6.229508196721311730e-01
6.229508196721311730e-01
6.229508196721311730e-01
6.206088992974239105e-01
6.206088992974239105e-01
6.182669789227166479e-01
6.182669789227166479e-01
6.159250585480093854e-01
6.159250585480093854e-01
6.182669789227166479e-01
6.206088992974239105e-01
6.182669789227166479e-01
6.182669789227166479e-01
6.182669789227166479e-01
6.182669789227166479e-01
6.182669789227166479e-01
6.182669789227166479e-01
6.182669789227166479e-01
6.182669789227166479e-01
6.182669789227166479e-01
6.182669789227166479e-01
6.182669789227166479e-01
6.182669789227166479e-01
6.182669789227166479e-01
6.182669789227166479e-01
6.159250585480093854e-01
6.159250585480093854e-01
6.159250585480093854e-01
6.112412177985948603e-01
6.065573770491803351e-01
6.065573770491803351e-01
6.042154566744730726e-01
6.018735362997658100e-01
6.018735362997658100e-01
6.018735362997658100e-01
5.971896955503512849e-01
5.971896955503512849e-01
5.925058548009367598e-01
5.925058548009367598e-01
5.925058548009367598e-01
5.878220140515222347e-01
5.831381733021077096e-01
5.831381733021077096e-01
5.831381733021077096e-01
5.971896955503512849e-01
6.018735362997658100e-01
6.206088992974239105e-01
6.252927400468384356e-01
6.252927400468384356e-01
6.252927400468384356e-01
6.252927400468384356e-01
6.229508196721311730e-01
6.252927400468384356e-01
6.393442622950820109e-01
6.487119437939110611e-01
6.651053864168617880e-01
6.159250585480093854e-01
5.386416861826698321e-01
4.145199063231850278e-01
2.763466042154566482e-01
1.405152224824355867e-01
3.278688524590164105e-02
2.341920374707260125e-02
1.288056206088993016e-01
2.599531615925058659e-01
3.793911007025760895e-01
5.035128805620608938e-01
5.971896955503512849e-01
6.252927400468384356e-01
6.206088992974239105e-01
6.229508196721311730e-01
6.276346604215456981e-01
6.252927400468384356e-01
6.229508196721311730e-01
6.252927400468384356e-01
6.276346604215456981e-01
6.276346604215456981e-01
6.323185011709602232e-01
6.323185011709602232e-01
6.323185011709602232e-01
6.323185011709602232e-01
6.323185011709602232e-01
6.323185011709602232e-01
6.323185011709602232e-01
6.323185011709602232e-01
6.323185011709602232e-01
6.299765807962529607e-01
6.299765807962529607e-01
6.299765807962529607e-01
6.323185011709602232e-01
6.323185011709602232e-01
6.323185011709602232e-01
6.299765807962529607e-01
6.299765807962529607e-01
6.276346604215456981e-01
6.252927400468384356e-01
6.252927400468384356e-01
6.252927400468384356e-01
6.229508196721311730e-01
6.206088992974239105e-01
6.182669789227166479e-01
6.135831381733021228e-01
6.088992974238875977e-01
6.018735362997658100e-01
5.948477751756440224e-01
5.901639344262294973e-01
5.807962529274004471e-01
5.761124121779859220e-01
5.714285714285713969e-01
5.573770491803278215e-01
5.526932084309132964e-01
5.409836065573770947e-01
5.316159250585480445e-01
5.222482435597189943e-01
5.152224824355972066e-01
5.058548009367681564e-01
5.011709601873536313e-01
4.964871194379391062e-01
4.964871194379391062e-01
5.011709601873536313e-01
5.058548009367681564e-01
5.152224824355972066e-01
5.245901639344262568e-01
5.339578454332553070e-01
5.456674473067916198e-01
5.550351288056205590e-01
5.644028103044496092e-01
5.714285714285713969e-01
5.761124121779859220e-01
5.831381733021077096e-01
5.878220140515222347e-01
5.925058548009367598e-01
5.925058548009367598e-01
5.925058548009367598e-01
5.971896955503512849e-01
5.971896955503512849e-01
6.018735362997658100e-01
6.018735362997658100e-01
6.018735362997658100e-01
6.042154566744730726e-01
6.042154566744730726e-01
6.065573770491803351e-01
6.065573770491803351e-01
6.088992974238875977e-01
6.112412177985948603e-01
6.112412177985948603e-01
6.112412177985948603e-01
6.112412177985948603e-01
6.112412177985948603e-01
6.088992974238875977e-01
6.065573770491803351e-01
6.088992974238875977e-01
6.112412177985948603e-01
6.112412177985948603e-01
6.088992974238875977e-01
6.088992974238875977e-01
6.112412177985948603e-01
6.112412177985948603e-01
6.135831381733021228e-01
6.135831381733021228e-01
6.159250585480093854e-01
6.159250585480093854e-01
6.182669789227166479e-01
6.159250585480093854e-01
6.159250585480093854e-01
6.159250585480093854e-01
6.159250585480093854e-01
6.182669789227166479e-01
6.182669789227166479e-01
6.182669789227166479e-01
6.182669789227166479e-01
6.206088992974239105e-01
6.206088992974239105e-01
6.229508196721311730e-01
6.229508196721311730e-01
6.252927400468384356e-01
6.252927400468384356e-01
6.252927400468384356e-01
6.229508196721311730e-01
6.229508196721311730e-01
6.229508196721311730e-01
6.229508196721311730e-01
6.229508196721311730e-01
6.229508196721311730e-01
6.229508196721311730e-01
6.229508196721311730e-01
6.229508196721311730e-01
6.229508196721311730e-01
6.229508196721311730e-01
6.229508196721311730e-01
6.206088992974239105e-01
6.206088992974239105e-01
6.206088992974239105e-01
6.229508196721311730e-01
6.206088992974239105e-01
6.206088992974239105e-01
6.206088992974239105e-01
6.206088992974239105e-01
6.229508196721311730e-01
6.229508196721311730e-01
6.229508196721311730e-01
6.182669789227166479e-01
6.206088992974239105e-01
6.229508196721311730e-01
6.299765807962529607e-01
6.276346604215456981e-01
6.299765807962529607e-01
6.299765807962529607e-01
6.299765807962529607e-01
6.323185011709602232e-01
6.276346604215456981e-01
6.252927400468384356e-01
6.206088992974239105e-01
6.206088992974239105e-01
6.182669789227166479e-01
6.159250585480093854e-01
6.159250585480093854e-01
6.159250585480093854e-01
6.182669789227166479e-01
6.229508196721311730e-01
6.252927400468384356e-01
6.206088992974239105e-01
6.135831381733021228e-01
6.135831381733021228e-01
6.135831381733021228e-01
6.112412177985948603e-01
5.995316159250585475e-01
5.925058548009367598e-01
5.854800936768149722e-01
5.831381733021077096e-01
5.901639344262294973e-01
6.042154566744730726e-01
6.065573770491803351e-01
6.018735362997658100e-01
5.995316159250585475e-01
5.948477751756440224e-01
5.878220140515222347e-01
5.925058548009367598e-01
6.018735362997658100e-01
6.159250585480093854e-01
6.182669789227166479e-01
6.135831381733021228e-01
6.159250585480093854e-01
6.252927400468384356e-01
6.252927400468384356e-01
6.252927400468384356e-01
6.299765807962529607e-01
6.299765807962529607e-01
6.416861826697892734e-01
6.604215456674472629e-01
6.651053864168617880e-01
5.807962529274004471e-01
4.683840749414520110e-01
3.372365339578454191e-01
2.107728337236534077e-01
7.728337236533958099e-02
2.341920374707259951e-03
4.918032786885245811e-02
1.733021077283372346e-01
3.302107728337236314e-01
4.309133489461358102e-01
5.550351288056205590e-01
6.252927400468384356e-01
6.252927400468384356e-01
6.252927400468384356e-01
6.299765807962529607e-01
6.323185011709602232e-01
6.299765807962529607e-01
6.252927400468384356e-01
6.276346604215456981e-01
6.346604215456674858e-01
6.370023419203747483e-01
6.346604215456674858e-01
6.393442622950820109e-01
6.393442622950820109e-01
6.440281030444965360e-01
6.393442622950820109e-01
6.393442622950820109e-01
6.393442622950820109e-01
6.370023419203747483e-01
6.370023419203747483e-01
6.370023419203747483e-01
6.346604215456674858e-01
6.323185011709602232e-01
6.018735362997658100e-01
6.018735362997658100e-01
6.018735362997658100e-01
6.018735362997658100e-01
6.018735362997658100e-01
6.018735362997658100e-01
8.313817330210773182e-01
8.196721311475410054e-01
8.173302107728337429e-01
8.079625292740046927e-01
8.079625292740046927e-01
7.962529274004683799e-01
7.962529274004683799e-01
7.962529274004683799e-01
7.892271662763465923e-01
7.892271662763465923e-01
7.915690866510538548e-01
8.079625292740046927e-01
8.103044496487119552e-01
8.126463700234192178e-01
6.416861826697892734e-01
6.463700234192037986e-01
6.533957845433254752e-01
7.049180327868852514e-01
7.587822014051521791e-01
7.587822014051521791e-01
7.775175644028102795e-01
7.939110070257611174e-01
8.103044496487119552e-01
8.196721311475410054e-01
8.337236533957845808e-01
8.384074941451991059e-01
7.564402810304449165e-01
8.313817330210773182e-01
8.243559718969555306e-01
8.103044496487119552e-01
7.939110070257611174e-01
7.822014051522248046e-01
7.704918032786884918e-01
7.634660421545667042e-01
7.587822014051521791e-01
7.564402810304449165e-01
6.112412177985948603e-01
6.112412177985948603e-01
6.065573770491803351e-01
7.611241217798594416e-01
7.985948477751756425e-01
7.985948477751756425e-01
7.939110070257611174e-01
6.861826697892271509e-01
7.564402810304449165e-01
7.587822014051521791e-01
7.564402810304449165e-01
7.587822014051521791e-01
7.587822014051521791e-01
7.658079625292739667e-01
7.985948477751756425e-01
7.868852459016393297e-01
7.915690866510538548e-01
7.915690866510538548e-01
8.384074941451991059e-01
7.213114754098360892e-01
5.901639344262294973e-01
5.901639344262294973e-01
5.901639344262294973e-01
5.878220140515222347e-01
5.854800936768149722e-01
5.854800936768149722e-01
5.854800936768149722e-01
5.854800936768149722e-01
5.854800936768149722e-01
5.878220140515222347e-01
5.878220140515222347e-01
5.878220140515222347e-01
5.878220140515222347e-01
5.901639344262294973e-01
5.901639344262294973e-01
5.878220140515222347e-01
5.948477751756440224e-01
5.995316159250585475e-01
6.018735362997658100e-01
5.971896955503512849e-01
5.925058548009367598e-01
5.901639344262294973e-01
5.901639344262294973e-01
5.878220140515222347e-01
5.878220140515222347e-01
5.854800936768149722e-01
5.854800936768149722e-01
5.854800936768149722e-01
5.854800936768149722e-01
5.854800936768149722e-01
5.854800936768149722e-01
5.854800936768149722e-01
5.854800936768149722e-01
5.831381733021077096e-01
5.831381733021077096e-01
5.807962529274004471e-01
5.807962529274004471e-01
5.807962529274004471e-01
5.831381733021077096e-01
5.831381733021077096e-01
5.843091334894613409e-01
5.854800936768149722e-01
5.854800936768149722e-01
5.878220140515222347e-01
5.878220140515222347e-01
5.878220140515222347e-01
5.854800936768149722e-01
5.831381733021077096e-01
5.831381733021077096e-01
5.831381733021077096e-01
5.831381733021077096e-01
5.831381733021077096e-01
5.807962529274004471e-01
5.831381733021077096e-01
5.831381733021077096e-01
5.831381733021077096e-01
5.831381733021077096e-01
5.854800936768149722e-01
5.854800936768149722e-01
5.854800936768149722e-01
5.878220140515222347e-01
5.878220140515222347e-01
5.925058548009367598e-01
5.925058548009367598e-01
5.948477751756440224e-01
5.948477751756440224e-01
5.925058548009367598e-01
5.925058548009367598e-01
5.925058548009367598e-01
5.971896955503512849e-01
5.995316159250585475e-01
5.995316159250585475e-01
5.971896955503512849e-01
5.925058548009367598e-01
5.925058548009367598e-01
5.925058548009367598e-01
5.948477751756440224e-01
5.948477751756440224e-01
5.948477751756440224e-01
5.901639344262294973e-01
5.878220140515222347e-01
5.831381733021077096e-01
5.807962529274004471e-01
5.737704918032786594e-01
5.737704918032786594e-01
5.737704918032786594e-01
5.737704918032786594e-01
5.761124121779859220e-01
5.761124121779859220e-01
5.761124121779859220e-01
5.690866510538641343e-01
5.667447306791568717e-01
5.831381733021077096e-01
6.299765807962529607e-01
6.932084309133489386e-01
7.798594847775175420e-01
8.782201405152224583e-01
9.648711943793910617e-01
9.882903981264636872e-01
9.180327868852459217e-01
8.149882903981264803e-01
7.166276346604215641e-01
6.510538641686182126e-01
5.807962529274004471e-01
5.409836065573770947e-01
5.456674473067916198e-01
5.573770491803278215e-01
5.667447306791568717e-01
5.690866510538641343e-01
5.667447306791568717e-01
5.644028103044496092e-01
5.644028103044496092e-01
5.667447306791568717e-01
5.690866510538641343e-01
5.690866510538641343e-01
5.714285714285713969e-01
5.737704918032786594e-01
5.761124121779859220e-01
5.761124121779859220e-01
5.737704918032786594e-01
5.714285714285713969e-01
5.714285714285713969e-01
5.714285714285713969e-01
5.737704918032786594e-01
5.737704918032786594e-01
5.714285714285713969e-01
5.737704918032786594e-01
5.737704918032786594e-01
5.737704918032786594e-01
5.737704918032786594e-01
5.737704918032786594e-01
5.761124121779859220e-01
5.761124121779859220e-01
5.784543325526931845e-01
5.761124121779859220e-01
5.737704918032786594e-01
5.784543325526931845e-01
5.807962529274004471e-01
5.831381733021077096e-01
5.831381733021077096e-01
5.878220140515222347e-01
5.878220140515222347e-01
5.925058548009367598e-01
5.948477751756440224e-01
5.995316159250585475e-01
6.065573770491803351e-01
6.112412177985948603e-01
6.159250585480093854e-01
6.252927400468384356e-01
6.323185011709602232e-01
6.416861826697892734e-01
6.510538641686182126e-01
6.533957845433254752e-01
6.557377049180327377e-01
6.557377049180327377e-01
6.557377049180327377e-01
6.557377049180327377e-01
6.533957845433254752e-01
6.487119437939110611e-01
6.440281030444965360e-01
6.346604215456674858e-01
6.252927400468384356e-01
6.159250585480093854e-01
6.112412177985948603e-01
6.065573770491803351e-01
6.018735362997658100e-01
5.995316159250585475e-01
5.995316159250585475e-01
5.971896955503512849e-01
5.901639344262294973e-01
5.831381733021077096e-01
5.831381733021077096e-01
5.807962529274004471e-01
5.831381733021077096e-01
5.831381733021077096e-01
5.831381733021077096e-01
5.831381733021077096e-01
5.831381733021077096e-01
5.854800936768149722e-01
5.831381733021077096e-01
5.831381733021077096e-01
5.807962529274004471e-01
5.807962529274004471e-01
5.807962529274004471e-01
5.807962529274004471e-01
5.831381733021077096e-01
5.831381733021077096e-01
5.831381733021077096e-01
5.854800936768149722e-01
5.854800936768149722e-01
5.831381733021077096e-01
5.831381733021077096e-01
5.831381733021077096e-01
5.807962529274004471e-01
5.807962529274004471e-01
5.807962529274004471e-01
5.807962529274004471e-01
5.819672131147540783e-01
5.831381733021077096e-01
5.831381733021077096e-01
5.831381733021077096e-01
5.854800936768149722e-01
5.831381733021077096e-01
5.807962529274004471e-01
5.784543325526931845e-01
5.784543325526931845e-01
5.807962529274004471e-01
5.807962529274004471e-01
5.807962529274004471e-01
5.807962529274004471e-01
5.807962529274004471e-01
5.807962529274004471e-01
5.807962529274004471e-01
5.831381733021077096e-01
5.831381733021077096e-01
5.807962529274004471e-01
5.784543325526931845e-01
5.761124121779859220e-01
5.761124121779859220e-01
5.761124121779859220e-01
5.761124121779859220e-01
5.761124121779859220e-01
5.761124121779859220e-01
5.784543325526931845e-01
5.784543325526931845e-01
5.761124121779859220e-01
5.761124121779859220e-01
5.737704918032786594e-01
5.737704918032786594e-01
5.737704918032786594e-01
5.761124121779859220e-01
5.761124121779859220e-01
5.761124121779859220e-01
5.761124121779859220e-01
5.761124121779859220e-01
5.761124121779859220e-01
5.761124121779859220e-01
5.772833723653395532e-01
5.784543325526931845e-01
5.784543325526931845e-01
5.784543325526931845e-01
5.784543325526931845e-01
5.784543325526931845e-01
5.784543325526931845e-01
5.784543325526931845e-01
5.784543325526931845e-01
5.784543325526931845e-01
5.761124121779859220e-01
5.761124121779859220e-01
5.761124121779859220e-01
5.761124121779859220e-01
5.761124121779859220e-01
5.784543325526931845e-01
5.831381733021077096e-01
5.831381733021077096e-01
5.878220140515222347e-01
5.878220140515222347e-01
5.901639344262294973e-01
5.901639344262294973e-01
5.901639344262294973e-01
5.878220140515222347e-01
5.878220140515222347e-01
5.878220140515222347e-01
5.878220140515222347e-01
5.878220140515222347e-01
5.878220140515222347e-01
5.854800936768149722e-01
5.831381733021077096e-01
5.831381733021077096e-01
5.854800936768149722e-01
5.854800936768149722e-01
5.831381733021077096e-01
5.784543325526931845e-01
5.761124121779859220e-01
5.761124121779859220e-01
5.761124121779859220e-01
5.772833723653395532e-01
5.784543325526931845e-01
5.784543325526931845e-01
5.737704918032786594e-01
5.667447306791568717e-01
5.620608899297423466e-01
5.878220140515222347e-01
6.393442622950820109e-01
7.119437939110070390e-01
8.032786885245901676e-01
9.133489461358313966e-01
9.882903981264636872e-01
9.648711943793910617e-01
8.875878220140515085e-01
7.868852459016393297e-01
6.932084309133489386e-01
6.299765807962529607e-01
5.761124121779859220e-01
5.456674473067916198e-01
5.526932084309132964e-01
5.597189695550350841e-01
5.644028103044496092e-01
5.667447306791568717e-01
5.644028103044496092e-01
5.644028103044496092e-01
5.620608899297423466e-01
5.644028103044496092e-01
5.644028103044496092e-01
5.620608899297423466e-01
5.620608899297423466e-01
5.644028103044496092e-01
5.644028103044496092e-01
5.667447306791568717e-01
5.644028103044496092e-01
5.644028103044496092e-01
5.644028103044496092e-01
5.644028103044496092e-01
5.644028103044496092e-01
5.644028103044496092e-01
5.644028103044496092e-01
5.644028103044496092e-01
5.644028103044496092e-01
5.667447306791568717e-01
5.667447306791568717e-01
5.667447306791568717e-01
5.690866510538641343e-01
5.690866510538641343e-01
5.714285714285713969e-01
5.714285714285713969e-01
5.737704918032786594e-01
5.737704918032786594e-01
5.761124121779859220e-01
5.784543325526931845e-01
5.784543325526931845e-01
5.831381733021077096e-01
5.854800936768149722e-01
5.878220140515222347e-01
5.925058548009367598e-01
5.971896955503512849e-01
6.018735362997658100e-01
6.065573770491803351e-01
6.159250585480093854e-01
6.206088992974239105e-01
6.276346604215456981e-01
6.370023419203747483e-01
6.416861826697892734e-01
6.487119437939110611e-01
6.533957845433254752e-01
6.533957845433254752e-01
6.557377049180327377e-01
6.533957845433254752e-01
6.510538641686182126e-01
6.463700234192037986e-01
6.299765807962529607e-01
6.276346604215456981e-01
6.252927400468384356e-01
6.206088992974239105e-01
6.159250585480093854e-01
6.135831381733021228e-01
6.042154566744730726e-01
5.995316159250585475e-01
5.971896955503512849e-01
5.925058548009367598e-01
5.901639344262294973e-01
5.878220140515222347e-01
5.878220140515222347e-01
5.854800936768149722e-01
5.831381733021077096e-01
5.831381733021077096e-01
5.807962529274004471e-01
5.807962529274004471e-01
5.807962529274004471e-01
5.831381733021077096e-01
5.831381733021077096e-01
5.807962529274004471e-01
5.807962529274004471e-01
5.807962529274004471e-01
5.807962529274004471e-01
5.784543325526931845e-01
5.784543325526931845e-01
5.784543325526931845e-01
5.761124121779859220e-01
5.761124121779859220e-01
5.761124121779859220e-01
5.761124121779859220e-01
5.761124121779859220e-01
5.761124121779859220e-01
5.761124121779859220e-01
5.761124121779859220e-01
5.761124121779859220e-01
5.784543325526931845e-01
5.784543325526931845e-01
5.784543325526931845e-01
5.784543325526931845e-01
5.807962529274004471e-01
5.807962529274004471e-01
5.807962529274004471e-01
5.807962529274004471e-01
5.819672131147540783e-01
5.831381733021077096e-01
5.831381733021077096e-01
5.831381733021077096e-01
5.831381733021077096e-01
5.831381733021077096e-01
5.831381733021077096e-01
5.831381733021077096e-01
5.831381733021077096e-01
5.807962529274004471e-01
5.807962529274004471e-01
5.807962529274004471e-01
5.807962529274004471e-01
5.784543325526931845e-01
5.784543325526931845e-01
5.807962529274004471e-01
5.807962529274004471e-01
5.807962529274004471e-01
5.784543325526931845e-01
5.784543325526931845e-01
5.761124121779859220e-01
5.761124121779859220e-01
5.761124121779859220e-01
5.761124121779859220e-01
5.761124121779859220e-01
5.761124121779859220e-01
5.761124121779859220e-01
5.784543325526931845e-01
5.784543325526931845e-01
5.784543325526931845e-01
5.784543325526931845e-01
5.784543325526931845e-01
5.807962529274004471e-01
5.807962529274004471e-01
5.807962529274004471e-01
5.807962529274004471e-01
6.018735362997658100e-01
6.018735362997658100e-01
6.018735362997658100e-01
6.018735362997658100e-01
6.065573770491803351e-01
6.088992974238875977e-01
7.634660421545667042e-01
7.704918032786884918e-01
7.798594847775175420e-01
7.915690866510538548e-01
8.056206088992974301e-01
8.173302107728337429e-01
8.290398126463700557e-01
8.360655737704918433e-01
8.407494145199063684e-01
8.360655737704918433e-01
8.290398126463700557e-01
8.149882903981264803e-01
8.032786885245901676e-01
7.868852459016393297e-01
7.775175644028102795e-01
7.658079625292739667e-01
7.611241217798594416e-01
7.564402810304449165e-01
5.854800936768149722e-01
5.854800936768149722e-01
5.878220140515222347e-01
7.658079625292739667e-01
7.658079625292739667e-01
7.611241217798594416e-01
7.611241217798594416e-01
7.587822014051521791e-01
7.915690866510538548e-01
7.962529274004683799e-01
7.985948477751756425e-01
7.892271662763465923e-01
7.306791569086651394e-01
7.283372365339578769e-01
8.454332552693208935e-01
8.454332552693208935e-01
6.065573770491803351e-01
6.018735362997658100e-01
5.948477751756440224e-01
5.925058548009367598e-01
5.948477751756440224e-01
5.878220140515222347e-01
5.737704918032786594e-01
5.526932084309132964e-01
5.362997658079625696e-01
5.526932084309132964e-01
6.206088992974239105e-01
7.025761124121779888e-01
7.892271662763465923e-01
8.641686182669788829e-01
9.250585480093677093e-01
9.063231850117096089e-01
8.782201405152224583e-01
7.915690866510538548e-01
7.540983606557376540e-01
6.885245901639344135e-01
6.276346604215456981e-01
6.042154566744730726e-01
5.925058548009367598e-01
5.878220140515222347e-01
5.807962529274004471e-01
5.807962529274004471e-01
5.807962529274004471e-01
5.807962529274004471e-01
5.807962529274004471e-01
5.807962529274004471e-01
5.807962529274004471e-01
5.807962529274004471e-01
5.807962529274004471e-01
5.807962529274004471e-01
5.831381733021077096e-01
5.831381733021077096e-01
5.831381733021077096e-01
5.854800936768149722e-01
5.854800936768149722e-01
5.878220140515222347e-01
5.878220140515222347e-01
5.878220140515222347e-01
5.901639344262294973e-01
5.925058548009367598e-01
5.901639344262294973e-01
5.854800936768149722e-01
5.807962529274004471e-01
5.807962529274004471e-01
5.807962529274004471e-01
5.807962529274004471e-01
5.761124121779859220e-01
5.737704918032786594e-01
5.737704918032786594e-01
5.761124121779859220e-01
5.761124121779859220e-01
5.784543325526931845e-01
5.784543325526931845e-01
5.807962529274004471e-01
5.831381733021077096e-01
5.831381733021077096e-01
5.831381733021077096e-01
5.854800936768149722e-01
5.878220140515222347e-01
5.925058548009367598e-01
5.971896955503512849e-01
6.018735362997658100e-01
6.088992974238875977e-01
6.182669789227166479e-01
6.229508196721311730e-01
6.299765807962529607e-01
6.370023419203747483e-01
6.393442622950820109e-01
6.323185011709602232e-01
6.323185011709602232e-01
6.323185011709602232e-01
6.299765807962529607e-01
6.299765807962529607e-01
6.252927400468384356e-01
6.206088992974239105e-01
6.206088992974239105e-01
6.182669789227166479e-01
6.159250585480093854e-01
6.135831381733021228e-01
6.112412177985948603e-01
6.112412177985948603e-01
6.088992974238875977e-01
6.065573770491803351e-01
6.065573770491803351e-01
6.042154566744730726e-01
6.042154566744730726e-01
6.018735362997658100e-01
6.018735362997658100e-01
6.018735362997658100e-01
5.995316159250585475e-01
5.995316159250585475e-01
5.995316159250585475e-01
5.971896955503512849e-01
5.971896955503512849e-01
5.948477751756440224e-01
5.925058548009367598e-01
5.901639344262294973e-01
5.878220140515222347e-01
5.878220140515222347e-01
5.878220140515222347e-01
5.878220140515222347e-01
5.878220140515222347e-01
5.878220140515222347e-01
5.878220140515222347e-01
5.878220140515222347e-01
5.878220140515222347e-01
5.878220140515222347e-01
5.878220140515222347e-01
5.854800936768149722e-01
5.831381733021077096e-01
5.831381733021077096e-01
5.854800936768149722e-01
5.878220140515222347e-01
5.878220140515222347e-01
5.878220140515222347e-01
5.901639344262294973e-01
5.901639344262294973e-01
5.925058548009367598e-01
5.948477751756440224e-01
5.971896955503512849e-01
5.971896955503512849e-01
5.971896955503512849e-01
5.948477751756440224e-01
5.948477751756440224e-01
5.948477751756440224e-01
5.948477751756440224e-01
5.948477751756440224e-01
5.925058548009367598e-01
5.925058548009367598e-01
5.925058548009367598e-01
5.925058548009367598e-01
5.925058548009367598e-01
5.925058548009367598e-01
5.925058548009367598e-01
5.925058548009367598e-01
5.925058548009367598e-01
5.925058548009367598e-01
5.925058548009367598e-01
5.925058548009367598e-01
5.925058548009367598e-01
5.925058548009367598e-01
5.925058548009367598e-01
5.925058548009367598e-01
5.925058548009367598e-01
5.901639344262294973e-01
5.901639344262294973e-01
5.901639344262294973e-01
5.901639344262294973e-01
5.901639344262294973e-01
5.901639344262294973e-01
5.901639344262294973e-01
5.901639344262294973e-01
5.901639344262294973e-01
5.901639344262294973e-01
5.901639344262294973e-01
5.878220140515222347e-01
5.807962529274004471e-01
5.807962529274004471e-01
5.807962529274004471e-01
5.807962529274004471e-01
5.807962529274004471e-01
5.784543325526931845e-01
5.784543325526931845e-01
5.784543325526931845e-01
5.784543325526931845e-01
5.784543325526931845e-01
5.784543325526931845e-01
5.784543325526931845e-01
5.784543325526931845e-01
5.761124121779859220e-01
5.761124121779859220e-01
5.831381733021077096e-01
5.901639344262294973e-01
5.948477751756440224e-01
5.971896955503512849e-01
6.018735362997658100e-01
6.018735362997658100e-01
6.065573770491803351e-01
6.065573770491803351e-01
6.065573770491803351e-01
6.065573770491803351e-01
6.042154566744730726e-01
6.042154566744730726e-01
6.018735362997658100e-01
6.018735362997658100e-01
6.018735362997658100e-01
5.971896955503512849e-01
5.831381733021077096e-01
5.690866510538641343e-01
5.550351288056205590e-01
5.409836065573770947e-01
5.503512880562060339e-01
6.088992974238875977e-01
6.885245901639344135e-01
7.775175644028102795e-01
8.454332552693208935e-01
9.156908665105386591e-01
8.969555035128805587e-01
8.618266978922716204e-01
7.868852459016393297e-01
7.353629976580796646e-01
6.814988290398126258e-01
6.346604215456674858e-01
6.135831381733021228e-01
6.088992974238875977e-01
6.018735362997658100e-01
5.948477751756440224e-01
5.901639344262294973e-01
5.831381733021077096e-01
5.831381733021077096e-01
5.831381733021077096e-01
5.831381733021077096e-01
5.807962529274004471e-01
5.807962529274004471e-01
5.807962529274004471e-01
5.784543325526931845e-01
5.784543325526931845e-01
5.784543325526931845e-01
5.784543325526931845e-01
5.784543325526931845e-01
5.784543325526931845e-01
5.784543325526931845e-01
5.784543325526931845e-01
5.784543325526931845e-01
5.784543325526931845e-01
5.784543325526931845e-01
5.807962529274004471e-01
5.807962529274004471e-01
5.807962529274004471e-01
5.807962529274004471e-01
5.807962529274004471e-01
5.831381733021077096e-01
5.831381733021077096e-01
5.831381733021077096e-01
5.831381733021077096e-01
5.843091334894613409e-01
5.854800936768149722e-01
5.854800936768149722e-01
5.878220140515222347e-01
5.878220140515222347e-01
5.901639344262294973e-01
5.925058548009367598e-01
5.948477751756440224e-01
5.971896955503512849e-01
6.018735362997658100e-01
6.065573770491803351e-01
6.112412177985948603e-01
6.135831381733021228e-01
6.182669789227166479e-01
6.252927400468384356e-01
6.299765807962529607e-01
6.346604215456674858e-01
6.370023419203747483e-01
6.393442622950820109e-01
6.393442622950820109e-01
6.370023419203747483e-01
6.299765807962529607e-01
6.252927400468384356e-01
6.182669789227166479e-01
6.112412177985948603e-01
6.065573770491803351e-01
6.065573770491803351e-01
6.018735362997658100e-01
6.018735362997658100e-01
6.018735362997658100e-01
5.995316159250585475e-01
5.995316159250585475e-01
5.971896955503512849e-01
5.971896955503512849e-01
5.948477751756440224e-01
5.948477751756440224e-01
5.948477751756440224e-01
5.925058548009367598e-01
5.878220140515222347e-01
5.878220140515222347e-01
5.831381733021077096e-01
5.784543325526931845e-01
5.784543325526931845e-01
5.784543325526931845e-01
5.784543325526931845e-01
5.784543325526931845e-01
5.784543325526931845e-01
5.807962529274004471e-01
5.807962529274004471e-01
5.807962529274004471e-01
5.807962529274004471e-01
5.807962529274004471e-01
5.831381733021077096e-01
5.831381733021077096e-01
5.854800936768149722e-01
5.854800936768149722e-01
5.854800936768149722e-01
5.854800936768149722e-01
5.878220140515222347e-01
5.878220140515222347e-01
5.901639344262294973e-01
5.901639344262294973e-01
5.854800936768149722e-01
5.831381733021077096e-01
5.854800936768149722e-01
5.854800936768149722e-01
5.878220140515222347e-01
5.878220140515222347e-01
5.878220140515222347e-01
5.901639344262294973e-01
5.925058548009367598e-01
5.925058548009367598e-01
5.925058548009367598e-01
5.925058548009367598e-01
5.925058548009367598e-01
5.925058548009367598e-01
5.925058548009367598e-01
5.925058548009367598e-01
5.925058548009367598e-01
5.913348946135831286e-01
5.901639344262294973e-01
5.901639344262294973e-01
5.901639344262294973e-01
5.901639344262294973e-01
5.901639344262294973e-01
5.901639344262294973e-01
5.901639344262294973e-01
5.901639344262294973e-01
5.901639344262294973e-01
5.901639344262294973e-01
5.901639344262294973e-01
5.901639344262294973e-01
5.901639344262294973e-01
5.901639344262294973e-01
5.901639344262294973e-01
5.901639344262294973e-01
5.901639344262294973e-01
5.901639344262294973e-01
5.901639344262294973e-01
5.901639344262294973e-01
5.901639344262294973e-01
5.901639344262294973e-01
5.901639344262294973e-01
5.925058548009367598e-01
5.925058548009367598e-01
5.925058548009367598e-01
5.948477751756440224e-01
5.948477751756440224e-01
5.948477751756440224e-01
5.948477751756440224e-01
5.971896955503512849e-01
5.971896955503512849e-01
5.971896955503512849e-01
5.971896955503512849e-01
5.948477751756440224e-01
5.925058548009367598e-01
5.925058548009367598e-01
5.925058548009367598e-01
5.901639344262294973e-01
5.878220140515222347e-01
5.878220140515222347e-01
5.854800936768149722e-01
5.878220140515222347e-01
5.878220140515222347e-01
5.878220140515222347e-01
5.901639344262294973e-01
5.901639344262294973e-01
5.948477751756440224e-01
6.018735362997658100e-01
6.065573770491803351e-01
6.088992974238875977e-01
6.088992974238875977e-01
6.135831381733021228e-01
6.159250585480093854e-01
6.135831381733021228e-01
6.112412177985948603e-01
6.065573770491803351e-01
6.042154566744730726e-01
6.042154566744730726e-01
6.042154566744730726e-01
6.042154566744730726e-01
6.042154566744730726e-01
6.042154566744730726e-01
5.971896955503512849e-01
5.831381733021077096e-01
5.690866510538641343e-01
5.550351288056205590e-01
5.667447306791568717e-01
6.299765807962529607e-01
7.025761124121779888e-01
7.915690866510538548e-01
8.711943793911006706e-01
9.414519906323185472e-01
9.320843091334894970e-01
8.992974238875878212e-01
8.243559718969555306e-01
7.658079625292739667e-01
6.908665105386416760e-01
6.604215456674472629e-01
6.229508196721311730e-01
6.112412177985948603e-01
6.018735362997658100e-01
5.925058548009367598e-01
5.925058548009367598e-01
5.925058548009367598e-01
5.925058548009367598e-01
5.901639344262294973e-01
5.901639344262294973e-01
5.901639344262294973e-01
5.878220140515222347e-01
5.878220140515222347e-01
5.854800936768149722e-01
5.854800936768149722e-01
5.831381733021077096e-01
5.831381733021077096e-01
5.807962529274004471e-01
5.784543325526931845e-01
5.784543325526931845e-01
5.761124121779859220e-01
5.761124121779859220e-01
5.761124121779859220e-01
5.761124121779859220e-01
5.761124121779859220e-01
5.761124121779859220e-01
5.761124121779859220e-01
5.761124121779859220e-01
5.761124121779859220e-01
5.761124121779859220e-01
5.784543325526931845e-01
5.784543325526931845e-01
5.807962529274004471e-01
5.807962529274004471e-01
5.831381733021077096e-01
5.831381733021077096e-01
5.831381733021077096e-01
5.854800936768149722e-01
5.854800936768149722e-01
5.854800936768149722e-01
5.854800936768149722e-01
5.854800936768149722e-01
5.854800936768149722e-01
5.854800936768149722e-01
5.901639344262294973e-01
5.971896955503512849e-01
6.065573770491803351e-01
6.112412177985948603e-01
6.206088992974239105e-01
6.276346604215456981e-01
6.299765807962529607e-01
6.299765807962529607e-01
6.370023419203747483e-01
6.393442622950820109e-01
6.370023419203747483e-01
6.018735362997658100e-01
6.018735362997658100e-01
6.018735362997658100e-01
6.018735362997658100e-01
6.018735362997658100e-01
6.112412177985948603e-01
7.634660421545667042e-01
7.704918032786884918e-01
7.798594847775175420e-01
7.939110070257611174e-01
8.032786885245901676e-01
8.173302107728337429e-01
8.290398126463700557e-01
8.360655737704918433e-01
8.430913348946136310e-01
8.360655737704918433e-01
8.290398126463700557e-01
8.173302107728337429e-01
8.032786885245901676e-01
7.915690866510538548e-01
7.798594847775175420e-01
7.658079625292739667e-01
7.611241217798594416e-01
6.861826697892271509e-01
6.112412177985948603e-01
6.159250585480093854e-01
8.173302107728337429e-01
8.126463700234192178e-01
8.032786885245901676e-01
7.985948477751756425e-01
7.915690866510538548e-01
7.822014051522248046e-01
7.751756440281030169e-01
7.704918032786884918e-01
7.634660421545667042e-01
8.032786885245901676e-01
7.985948477751756425e-01
8.009367681498829050e-01
7.611241217798594416e-01
5.971896955503512849e-01
5.971896955503512849e-01
7.096018735362997765e-01
5.901639344262294973e-01
5.925058548009367598e-01
5.948477751756440224e-01
5.948477751756440224e-01
5.971896955503512849e-01
5.971896955503512849e-01
5.995316159250585475e-01
6.018735362997658100e-01
6.018735362997658100e-01
6.018735362997658100e-01
6.042154566744730726e-01
6.065573770491803351e-01
6.065573770491803351e-01
6.088992974238875977e-01
6.112412177985948603e-01
6.112412177985948603e-01
6.135831381733021228e-01
6.135831381733021228e-01
6.135831381733021228e-01
6.135831381733021228e-01
6.135831381733021228e-01
6.124121779859484915e-01
6.112412177985948603e-01
6.112412177985948603e-01
6.112412177985948603e-01
6.088992974238875977e-01
6.088992974238875977e-01
6.088992974238875977e-01
6.088992974238875977e-01
6.112412177985948603e-01
6.112412177985948603e-01
6.112412177985948603e-01
6.135831381733021228e-01
6.135831381733021228e-01
6.135831381733021228e-01
6.159250585480093854e-01
6.182669789227166479e-01
6.182669789227166479e-01
6.182669789227166479e-01
6.182669789227166479e-01
6.182669789227166479e-01
6.182669789227166479e-01
6.182669789227166479e-01
6.182669789227166479e-01
6.182669789227166479e-01
6.182669789227166479e-01
6.182669789227166479e-01
6.182669789227166479e-01
6.159250585480093854e-01
6.159250585480093854e-01
6.159250585480093854e-01
6.135831381733021228e-01
6.112412177985948603e-01
6.112412177985948603e-01
6.112412177985948603e-01
6.088992974238875977e-01
6.088992974238875977e-01
6.065573770491803351e-01
6.018735362997658100e-01
5.971896955503512849e-01
5.971896955503512849e-01
5.901639344262294973e-01
5.831381733021077096e-01
5.831381733021077096e-01
5.878220140515222347e-01
5.925058548009367598e-01
5.948477751756440224e-01
5.995316159250585475e-01
6.042154566744730726e-01
6.088992974238875977e-01
6.182669789227166479e-01
6.206088992974239105e-01
6.276346604215456981e-01
6.276346604215456981e-01
6.276346604215456981e-01
6.252927400468384356e-01
6.252927400468384356e-01
6.252927400468384356e-01
6.229508196721311730e-01
6.229508196721311730e-01
6.229508196721311730e-01
6.206088992974239105e-01
6.182669789227166479e-01
6.065573770491803351e-01
5.784543325526931845e-01
5.339578454332553070e-01
4.637002341920374859e-01
3.817330210772833521e-01
3.114754098360655865e-01
2.927400468384074861e-01
3.887587822014051397e-01
5.480093676814988823e-01
6.955503512880562011e-01
8.524590163934425702e-01
1.000000000000000000e+00
9.695550351288055868e-01
8.922716627634660336e-01
7.915690866510538548e-01
7.330210772833724020e-01
6.697892271662763131e-01
6.557377049180327377e-01
6.346604215456674858e-01
6.276346604215456981e-01
6.229508196721311730e-01
6.206088992974239105e-01
6.206088992974239105e-01
6.182669789227166479e-01
6.159250585480093854e-01
6.135831381733021228e-01
6.135831381733021228e-01
6.112412177985948603e-01
6.088992974238875977e-01
6.065573770491803351e-01
6.065573770491803351e-01
6.065573770491803351e-01
6.042154566744730726e-01
6.042154566744730726e-01
6.018735362997658100e-01
6.018735362997658100e-01
6.018735362997658100e-01
5.995316159250585475e-01
5.971896955503512849e-01
5.971896955503512849e-01
5.971896955503512849e-01
5.971896955503512849e-01
5.971896955503512849e-01
5.971896955503512849e-01
5.925058548009367598e-01
5.901639344262294973e-01
5.878220140515222347e-01
5.831381733021077096e-01
5.807962529274004471e-01
5.761124121779859220e-01
5.737704918032786594e-01
5.714285714285713969e-01
5.667447306791568717e-01
5.620608899297423466e-01
5.573770491803278215e-01
5.503512880562060339e-01
5.456674473067916198e-01
5.409836065573770947e-01
5.362997658079625696e-01
5.339578454332553070e-01
5.316159250585480445e-01
5.292740046838407819e-01
5.316159250585480445e-01
5.339578454332553070e-01
5.362997658079625696e-01
5.386416861826698321e-01
5.409836065573770947e-01
5.409836065573770947e-01
5.456674473067916198e-01
5.456674473067916198e-01
5.526932084309132964e-01
5.597189695550350841e-01
5.667447306791568717e-01
5.714285714285713969e-01
5.737704918032786594e-01
5.784543325526931845e-01
5.831381733021077096e-01
5.878220140515222347e-01
5.925058548009367598e-01
5.925058548009367598e-01
5.971896955503512849e-01
6.018735362997658100e-01
6.042154566744730726e-01
6.065573770491803351e-01
6.065573770491803351e-01
6.065573770491803351e-01
6.088992974238875977e-01
6.112412177985948603e-01
6.112412177985948603e-01
6.135831381733021228e-01
6.135831381733021228e-01
6.112412177985948603e-01
6.112412177985948603e-01
6.112412177985948603e-01
6.088992974238875977e-01
6.088992974238875977e-01
6.065573770491803351e-01
6.065573770491803351e-01
6.042154566744730726e-01
6.042154566744730726e-01
6.018735362997658100e-01
6.018735362997658100e-01
6.018735362997658100e-01
6.018735362997658100e-01
6.018735362997658100e-01
6.018735362997658100e-01
6.018735362997658100e-01
5.995316159250585475e-01
5.995316159250585475e-01
5.995316159250585475e-01
5.995316159250585475e-01
5.995316159250585475e-01
5.995316159250585475e-01
6.018735362997658100e-01
6.018735362997658100e-01
6.018735362997658100e-01
6.042154566744730726e-01
6.042154566744730726e-01
6.065573770491803351e-01
6.065573770491803351e-01
6.088992974238875977e-01
6.088992974238875977e-01
6.112412177985948603e-01
6.112412177985948603e-01
6.112412177985948603e-01
6.112412177985948603e-01
6.135831381733021228e-01
6.135831381733021228e-01
6.159250585480093854e-01
6.159250585480093854e-01
6.159250585480093854e-01
6.159250585480093854e-01
6.159250585480093854e-01
6.159250585480093854e-01
6.159250585480093854e-01
6.159250585480093854e-01
6.159250585480093854e-01
6.159250585480093854e-01
6.159250585480093854e-01
6.206088992974239105e-01
6.229508196721311730e-01
6.252927400468384356e-01
6.252927400468384356e-01
6.252927400468384356e-01
6.252927400468384356e-01
6.229508196721311730e-01
6.229508196721311730e-01
6.229508196721311730e-01
6.206088992974239105e-01
6.206088992974239105e-01
6.206088992974239105e-01
6.206088992974239105e-01
6.206088992974239105e-01
6.182669789227166479e-01
6.159250585480093854e-01
6.159250585480093854e-01
6.159250585480093854e-01
6.135831381733021228e-01
6.112412177985948603e-01
6.112412177985948603e-01
6.088992974238875977e-01
6.065573770491803351e-01
6.065573770491803351e-01
6.065573770491803351e-01
6.042154566744730726e-01
6.018735362997658100e-01
6.042154566744730726e-01
6.088992974238875977e-01
6.135831381733021228e-01
6.206088992974239105e-01
6.229508196721311730e-01
6.252927400468384356e-01
6.299765807962529607e-01
6.323185011709602232e-01
6.323185011709602232e-01
6.323185011709602232e-01
6.323185011709602232e-01
6.323185011709602232e-01
6.323185011709602232e-01
6.323185011709602232e-01
6.323185011709602232e-01
6.323185011709602232e-01
6.323185011709602232e-01
6.323185011709602232e-01
6.323185011709602232e-01
6.276346604215456981e-01
6.206088992974239105e-01
5.995316159250585475e-01
5.644028103044496092e-01
5.035128805620608938e-01
4.168618266978922904e-01
3.372365339578454191e-01
2.693208430913349161e-01
2.974238875878220112e-01
4.145199063231850278e-01
5.620608899297423466e-01
7.236533957845433518e-01
8.571428571428570953e-01
9.742388758782201119e-01
9.461358313817330723e-01
8.618266978922716204e-01
7.822014051522248046e-01
7.353629976580796646e-01
