4.470588235294117863e-01
4.470588235294117863e-01
4.453399541634835979e-01
4.436210847975554095e-01
4.419022154316272211e-01
4.401833460656989772e-01
4.384644766997707888e-01
4.367456073338426004e-01
4.350267379679144120e-01
4.333078686019862791e-01
4.315889992360580907e-01
4.298701298701299023e-01
4.281512605042017139e-01
4.264323911382734700e-01
4.247135217723452816e-01
4.229946524064170932e-01
4.212757830404889048e-01
4.195569136745607164e-01
4.178380443086325835e-01
4.161191749427043951e-01
4.144003055767762067e-01
4.126814362108479628e-01
4.109625668449197744e-01
4.092436974789915860e-01
4.075248281130633976e-01
4.058059587471352092e-01
4.040870893812070763e-01
4.023682200152788879e-01
4.006493506493505885e-01
3.989304812834224556e-01
3.972116119174942672e-01
3.954927425515660788e-01
3.937738731856378904e-01
3.920550038197097020e-01
3.903361344537815136e-01
3.886172650878533807e-01
3.868983957219251923e-01
3.851795263559968929e-01
3.834606569900687600e-01
3.817417876241405716e-01
3.800229182582123832e-01
3.783040488922841948e-01
3.765851795263560065e-01
3.748663101604278181e-01
3.731474407944995741e-01
3.714285714285713857e-01
3.697097020626432529e-01
3.679908326967150645e-01
3.662719633307868761e-01
3.645530939648586877e-01
3.628342245989304993e-01
3.611153552330023109e-01
3.593964858670740670e-01
3.576776165011458786e-01
3.559587471352176902e-01
3.542398777692895573e-01
3.525210084033613689e-01
3.508021390374331805e-01
3.490832696715049921e-01
3.473644003055767482e-01
3.456455309396485598e-01
3.439266615737203714e-01
3.422077922077921830e-01
3.404889228418640501e-01
3.387700534759358617e-01
3.370511841100076733e-01
3.353323147440794849e-01
3.336134453781512965e-01
3.318945760122230526e-01
3.301757066462948642e-01
3.284568372803666758e-01
3.267379679144384874e-01
3.250190985485103545e-01
3.233002291825821661e-01
3.215813598166538667e-01
3.198624904507257338e-01
3.181436210847975454e-01
3.164247517188693570e-01
3.147058823529411686e-01
2.720588235294117418e-01
2.720588235294117418e-01
2.661764705882352922e-01
8.823529411764706454e-02
8.823529411764706454e-02
8.823529411764706454e-02
8.823529411764706454e-02
8.823529411764706454e-02
8.823529411764706454e-02
5.000000000000000000e-01
8.823529411764706454e-02
8.823529411764706454e-02
8.823529411764706454e-02
8.823529411764706454e-02
8.823529411764706454e-02
8.823529411764706454e-02
5.000000000000000000e-01
8.823529411764706454e-02
8.823529411764706454e-02
8.823529411764706454e-02
8.823529411764706454e-02
8.823529411764706454e-02
8.823529411764706454e-02
8.823529411764706454e-02
5.000000000000000000e-01
8.823529411764706454e-02
8.823529411764706454e-02
8.823529411764706454e-02
8.823529411764706454e-02
8.823529411764706454e-02
8.823529411764706454e-02
8.823529411764706454e-02
5.000000000000000000e-01
8.823529411764706454e-02
8.823529411764706454e-02
8.823529411764706454e-02
8.823529411764706454e-02
8.823529411764706454e-02
8.823529411764706454e-02
2.705882352941176294e-01
2.735294117647059098e-01
2.735294117647059098e-01
3.014705882352941013e-01
4.426470588235293935e-01
4.426470588235293935e-01
4.426470588235293935e-01
3.191176470588235059e-01
3.191176470588235059e-01
3.205882352941176738e-01
3.205882352941176738e-01
3.235294117647058987e-01
3.235294117647058987e-01
4.411764705882352811e-01
4.411764705882352811e-01
4.411764705882352811e-01
3.235294117647058987e-01
3.235294117647058987e-01
3.235294117647058987e-01
3.235294117647058987e-01
3.235294117647058987e-01
3.235294117647058987e-01
3.220588235294117863e-01
3.220588235294117863e-01
3.220588235294117863e-01
3.220588235294117863e-01
3.205882352941176738e-01
3.205882352941176738e-01
3.191176470588235059e-01
3.191176470588235059e-01
3.191176470588235059e-01
3.191176470588235059e-01
3.191176470588235059e-01
3.191176470588235059e-01
3.191176470588235059e-01
3.191176470588235059e-01
3.191176470588235059e-01
3.191176470588235059e-01
3.191176470588235059e-01
3.191176470588235059e-01
3.191176470588235059e-01
3.191176470588235059e-01
3.191176470588235059e-01
3.191176470588235059e-01
3.147058823529411686e-01
3.147058823529411686e-01
3.147058823529411686e-01
3.102941176470588314e-01
3.117647058823529438e-01
3.147058823529411686e-01
3.147058823529411686e-01
3.147058823529411686e-01
3.147058823529411686e-01
3.161764705882352811e-01
3.191176470588235059e-01
3.191176470588235059e-01
3.191176470588235059e-01
3.205882352941176738e-01
3.205882352941176738e-01
3.205882352941176738e-01
3.191176470588235059e-01
3.191176470588235059e-01
3.191176470588235059e-01
3.191176470588235059e-01
3.191176470588235059e-01
3.191176470588235059e-01
3.191176470588235059e-01
3.191176470588235059e-01
3.191176470588235059e-01
3.191176470588235059e-01
3.191176470588235059e-01
3.161764705882352811e-01
3.102941176470588314e-01
3.029411764705882137e-01
2.852941176470588092e-01
2.558823529411764497e-01
2.220588235294117530e-01
1.882352941176470562e-01
1.499999999999999944e-01
1.705882352941176516e-01
2.205882352941176405e-01
2.794117647058823595e-01
3.294117647058823484e-01
3.632352941176470451e-01
3.705882352941176627e-01
3.617647058823529327e-01
3.499999999999999778e-01
3.426470588235294157e-01
3.367647058823529660e-01
3.308823529411764608e-01
3.308823529411764608e-01
3.294117647058823484e-01
3.294117647058823484e-01
3.294117647058823484e-01
3.294117647058823484e-01
3.279411764705882359e-01
3.279411764705882359e-01
3.279411764705882359e-01
3.279411764705882359e-01
3.264705882352941235e-01
3.264705882352941235e-01
3.264705882352941235e-01
3.250000000000000111e-01
3.250000000000000111e-01
3.250000000000000111e-01
3.250000000000000111e-01
3.250000000000000111e-01
3.235294117647058987e-01
3.235294117647058987e-01
3.235294117647058987e-01
3.220588235294117863e-01
3.220588235294117863e-01
3.235294117647058987e-01
3.235294117647058987e-01
3.250000000000000111e-01
3.235294117647058987e-01
3.235294117647058987e-01
3.220588235294117863e-01
3.220588235294117863e-01
3.220588235294117863e-01
3.220588235294117863e-01
3.205882352941176738e-01
3.191176470588235059e-01
3.191176470588235059e-01
3.176470588235293935e-01
3.161764705882352811e-01
3.088235294117647189e-01
3.073529411764706065e-01
3.058823529411764941e-01
3.044117647058823262e-01
2.999999999999999889e-01
2.985294117647058765e-01
2.941176470588235392e-01
2.941176470588235392e-01
2.926470588235294268e-01
2.911764705882353144e-01
2.911764705882353144e-01
2.897058823529412019e-01
2.911764705882353144e-01
2.911764705882353144e-01
2.926470588235294268e-01
2.941176470588235392e-01
2.955882352941176516e-01
2.970588235294117641e-01
2.970588235294117641e-01
2.985294117647058765e-01
2.999999999999999889e-01
3.029411764705882137e-01
3.029411764705882137e-01
3.058823529411764941e-01
3.088235294117647189e-01
3.102941176470588314e-01
3.102941176470588314e-01
3.102941176470588314e-01
3.132352941176470562e-01
3.147058823529411686e-01
3.147058823529411686e-01
3.147058823529411686e-01
3.151960784313725394e-01
3.156862745098039658e-01
3.161764705882352811e-01
3.161764705882352811e-01
3.147058823529411686e-01
3.147058823529411686e-01
3.147058823529411686e-01
3.147058823529411686e-01
3.161764705882352811e-01
3.147058823529411686e-01
3.147058823529411686e-01
3.147058823529411686e-01
3.147058823529411686e-01
3.147058823529411686e-01
3.147058823529411686e-01
3.132352941176470562e-01
3.132352941176470562e-01
3.102941176470588314e-01
3.102941176470588314e-01
3.102941176470588314e-01
3.102941176470588314e-01
3.102941176470588314e-01
3.102941176470588314e-01
3.088235294117647189e-01
3.088235294117647189e-01
3.088235294117647189e-01
3.088235294117647189e-01
3.088235294117647189e-01
3.088235294117647189e-01
3.088235294117647189e-01
3.088235294117647189e-01
3.088235294117647189e-01
3.073529411764706065e-01
3.073529411764706065e-01
3.073529411764706065e-01
3.073529411764706065e-01
3.073529411764706065e-01
3.088235294117647189e-01
3.088235294117647189e-01
3.088235294117647189e-01
3.102941176470588314e-01
3.102941176470588314e-01
3.102941176470588314e-01
3.102941176470588314e-01
3.102941176470588314e-01
3.117647058823529438e-01
3.132352941176470562e-01
3.132352941176470562e-01
3.132352941176470562e-01
3.147058823529411686e-01
3.147058823529411686e-01
3.147058823529411686e-01
3.147058823529411686e-01
3.147058823529411686e-01
3.147058823529411686e-01
3.147058823529411686e-01
3.132352941176470562e-01
3.132352941176470562e-01
3.132352941176470562e-01
3.132352941176470562e-01
3.132352941176470562e-01
3.132352941176470562e-01
3.132352941176470562e-01
3.132352941176470562e-01
3.126470588235294445e-01
3.120588235294117219e-01
3.114705882352941102e-01
3.108823529411764430e-01
3.102941176470588314e-01
3.102941176470588314e-01
3.102941176470588314e-01
3.102941176470588314e-01
3.102941176470588314e-01
3.088235294117647189e-01
3.073529411764706065e-01
3.044117647058823262e-01
3.044117647058823262e-01
3.044117647058823262e-01
3.044117647058823262e-01
3.051470588235294379e-01
3.058823529411764941e-01
3.058823529411764941e-01
3.058823529411764941e-01
3.058823529411764941e-01
3.058823529411764941e-01
3.058823529411764941e-01
3.058823529411764941e-01
3.073529411764706065e-01
3.088235294117647189e-01
3.088235294117647189e-01
3.088235294117647189e-01
3.102941176470588314e-01
3.102941176470588314e-01
3.102941176470588314e-01
3.132352941176470562e-01
3.132352941176470562e-01
3.132352941176470562e-01
3.132352941176470562e-01
3.132352941176470562e-01
3.132352941176470562e-01
3.132352941176470562e-01
3.102941176470588314e-01
3.029411764705882137e-01
2.941176470588235392e-01
2.720588235294117418e-01
2.441176470588235226e-01
2.102941176470588258e-01
1.647058823529411742e-01
1.455882352941176572e-01
1.897058823529411686e-01
2.352941176470588203e-01
2.926470588235294268e-01
3.367647058823529660e-01
3.647058823529411575e-01
3.602941176470588203e-01
3.514705882352940902e-01
3.426470588235294157e-01
3.338235294117646856e-01
3.264705882352941235e-01
3.205882352941176738e-01
3.191176470588235059e-01
3.161764705882352811e-01
3.161764705882352811e-01
3.161764705882352811e-01
3.161764705882352811e-01
3.161764705882352811e-01
3.161764705882352811e-01
3.161764705882352811e-01
3.147058823529411686e-01
3.147058823529411686e-01
3.147058823529411686e-01
3.147058823529411686e-01
3.147058823529411686e-01
3.147058823529411686e-01
3.132352941176470562e-01
3.102941176470588314e-01
3.102941176470588314e-01
3.102941176470588314e-01
3.102941176470588314e-01
3.132352941176470562e-01
3.132352941176470562e-01
3.132352941176470562e-01
3.132352941176470562e-01
3.132352941176470562e-01
3.132352941176470562e-01
3.132352941176470562e-01
3.132352941176470562e-01
3.132352941176470562e-01
3.132352941176470562e-01
3.102941176470588314e-01
3.102941176470588314e-01
3.102941176470588314e-01
3.088235294117647189e-01
3.088235294117647189e-01
3.088235294117647189e-01
3.073529411764706065e-01
3.029411764705882137e-01
2.999999999999999889e-01
2.955882352941176516e-01
2.941176470588235392e-01
2.897058823529412019e-01
2.882352941176470340e-01
2.867647058823529216e-01
2.852941176470588092e-01
2.823529411764705843e-01
2.808823529411764719e-01
2.823529411764705843e-01
2.823529411764705843e-01
2.823529411764705843e-01
2.838235294117646967e-01
2.852941176470588092e-01
2.852941176470588092e-01
2.852941176470588092e-01
2.882352941176470340e-01
2.897058823529412019e-01
2.911764705882353144e-01
2.941176470588235392e-01
2.941176470588235392e-01
2.970588235294117641e-01
2.970588235294117641e-01
2.985294117647058765e-01
2.999999999999999889e-01
3.029411764705882137e-01
3.029411764705882137e-01
3.044117647058823262e-01
3.058823529411764941e-01
3.058823529411764941e-01
3.058823529411764941e-01
3.073529411764706065e-01
3.073529411764706065e-01
3.073529411764706065e-01
3.088235294117647189e-01
3.102941176470588314e-01
3.102941176470588314e-01
3.102941176470588314e-01
3.088235294117647189e-01
3.073529411764706065e-01
3.073529411764706065e-01
3.058823529411764941e-01
3.058823529411764941e-01
3.044117647058823262e-01
3.044117647058823262e-01
3.029411764705882137e-01
3.029411764705882137e-01
3.014705882352941013e-01
3.014705882352941013e-01
2.999999999999999889e-01
2.985294117647058765e-01
2.985294117647058765e-01
2.985294117647058765e-01
2.985294117647058765e-01
2.985294117647058765e-01
2.985294117647058765e-01
2.985294117647058765e-01
2.985294117647058765e-01
2.985294117647058765e-01
2.985294117647058765e-01
2.985294117647058765e-01
2.985294117647058765e-01
2.985294117647058765e-01
2.999999999999999889e-01
2.999999999999999889e-01
2.999999999999999889e-01
2.999999999999999889e-01
2.999999999999999889e-01
2.999999999999999889e-01
2.999999999999999889e-01
2.970588235294117641e-01
2.970588235294117641e-01
2.970588235294117641e-01
2.985294117647058765e-01
2.985294117647058765e-01
2.999999999999999889e-01
2.999999999999999889e-01
2.999999999999999889e-01
3.014705882352941013e-01
3.014705882352941013e-01
3.022058823529411575e-01
3.029411764705882137e-01
3.029411764705882137e-01
3.044117647058823262e-01
3.044117647058823262e-01
3.058823529411764941e-01
3.058823529411764941e-01
3.073529411764706065e-01
3.073529411764706065e-01
3.088235294117647189e-01
3.088235294117647189e-01
3.102941176470588314e-01
3.102941176470588314e-01
3.102941176470588314e-01
3.102941176470588314e-01
3.102941176470588314e-01
3.102941176470588314e-01
3.102941176470588314e-01
3.102941176470588314e-01
3.102941176470588314e-01
3.102941176470588314e-01
3.102941176470588314e-01
3.088235294117647189e-01
3.088235294117647189e-01
3.088235294117647189e-01
3.088235294117647189e-01
3.088235294117647189e-01
3.088235294117647189e-01
3.102941176470588314e-01
3.102941176470588314e-01
3.088235294117647189e-01
3.058823529411764941e-01
3.044117647058823262e-01
3.029411764705882137e-01
3.014705882352941013e-01
3.014705882352941013e-01
3.014705882352941013e-01
2.999999999999999889e-01
2.985294117647058765e-01
2.955882352941176516e-01
2.955882352941176516e-01
3.014705882352941013e-01
3.058823529411764941e-01
3.088235294117647189e-01
3.088235294117647189e-01
3.102941176470588314e-01
3.102941176470588314e-01
3.102941176470588314e-01
3.102941176470588314e-01
3.132352941176470562e-01
3.117647058823529438e-01
3.088235294117647189e-01
3.058823529411764941e-01
3.058823529411764941e-01
3.088235294117647189e-01
3.088235294117647189e-01
3.102941176470588314e-01
3.102941176470588314e-01
3.102941176470588314e-01
3.058823529411764941e-01
2.985294117647058765e-01
2.794117647058823595e-01
2.514705882352941124e-01
2.205882352941176405e-01
1.852941176470588314e-01
1.426470588235294046e-01
1.529411764705882470e-01
2.102941176470588258e-01
2.647058823529411797e-01
3.176470588235293935e-01
3.588235294117647078e-01
3.691176470588235503e-01
3.588235294117647078e-01
3.470588235294117530e-01
3.367647058823529660e-01
3.250000000000000111e-01
3.205882352941176738e-01
3.161764705882352811e-01
3.088235294117647189e-01
3.073529411764706065e-01
3.073529411764706065e-01
3.132352941176470562e-01
3.147058823529411686e-01
3.147058823529411686e-01
3.147058823529411686e-01
3.147058823529411686e-01
3.132352941176470562e-01
3.132352941176470562e-01
3.132352941176470562e-01
3.132352941176470562e-01
3.132352941176470562e-01
3.147058823529411686e-01
3.147058823529411686e-01
3.132352941176470562e-01
3.132352941176470562e-01
3.147058823529411686e-01
3.147058823529411686e-01
3.147058823529411686e-01
3.147058823529411686e-01
3.147058823529411686e-01
3.147058823529411686e-01
4.602941176470587981e-01
4.544117647058823484e-01
4.558823529411764608e-01
4.411764705882352811e-01
4.411764705882352811e-01
4.352941176470588314e-01
4.352941176470588314e-01
4.352941176470588314e-01
4.352941176470588314e-01
4.411764705882352811e-01
4.367647058823529438e-01
4.470588235294117863e-01
4.485294117647058987e-01
4.514705882352941235e-01
2.941176470588235392e-01
2.926470588235294268e-01
2.882352941176470340e-01
2.882352941176470340e-01
2.852941176470588092e-01
4.176470588235294268e-01
4.308823529411764941e-01
4.411764705882352811e-01
4.485294117647058987e-01
4.544117647058823484e-01
4.632352941176470784e-01
4.647058823529411908e-01
2.838235294117646967e-01
4.588235294117646856e-01
4.558823529411764608e-01
4.485294117647058987e-01
4.397058823529411686e-01
4.294117647058823262e-01
4.235294117647058765e-01
4.161764705882353144e-01
4.161764705882353144e-01
3.691176470588235503e-01
3.205882352941176738e-01
3.205882352941176738e-01
3.205882352941176738e-01
4.161764705882353144e-01
4.426470588235293935e-01
4.426470588235293935e-01
4.426470588235293935e-01
3.235294117647058987e-01
4.705882352941176405e-01
4.705882352941176405e-01
4.705882352941176405e-01
3.264705882352941235e-01
3.294117647058823484e-01
4.000000000000000222e-01
4.000000000000000222e-01
4.000000000000000222e-01
4.000000000000000222e-01
4.000000000000000222e-01
3.264705882352941235e-01
3.264705882352941235e-01
3.250000000000000111e-01
3.250000000000000111e-01
3.250000000000000111e-01
3.279411764705882359e-01
3.308823529411764608e-01
3.323529411764705732e-01
3.308823529411764608e-01
3.308823529411764608e-01
3.308823529411764608e-01
3.308823529411764608e-01
3.308823529411764608e-01
3.308823529411764608e-01
3.308823529411764608e-01
3.308823529411764608e-01
3.308823529411764608e-01
3.308823529411764608e-01
3.294117647058823484e-01
3.279411764705882359e-01
3.279411764705882359e-01
3.294117647058823484e-01
3.308823529411764608e-01
3.308823529411764608e-01
3.308823529411764608e-01
3.308823529411764608e-01
3.323529411764705732e-01
3.323529411764705732e-01
3.323529411764705732e-01
3.308823529411764608e-01
3.308823529411764608e-01
3.308823529411764608e-01
3.308823529411764608e-01
3.294117647058823484e-01
3.294117647058823484e-01
3.323529411764705732e-01
3.323529411764705732e-01
3.367647058823529660e-01
3.352941176470587981e-01
3.352941176470587981e-01
3.338235294117646856e-01
3.338235294117646856e-01
3.323529411764705732e-01
3.308823529411764608e-01
3.308823529411764608e-01
3.294117647058823484e-01
3.294117647058823484e-01
3.294117647058823484e-01
3.308823529411764608e-01
3.352941176470587981e-01
3.352941176470587981e-01
3.352941176470587981e-01
3.352941176470587981e-01
3.352941176470587981e-01
3.367647058823529660e-01
3.367647058823529660e-01
3.367647058823529660e-01
3.367647058823529660e-01
3.367647058823529660e-01
3.367647058823529660e-01
3.367647058823529660e-01
3.367647058823529660e-01
3.367647058823529660e-01
3.367647058823529660e-01
3.352941176470587981e-01
3.352941176470587981e-01
3.338235294117646856e-01
3.338235294117646856e-01
3.338235294117646856e-01
3.323529411764705732e-01
3.294117647058823484e-01
3.235294117647058987e-01
3.205882352941176738e-01
3.191176470588235059e-01
3.220588235294117863e-01
3.250000000000000111e-01
3.235294117647058987e-01
3.205882352941176738e-01
3.161764705882352811e-01
3.147058823529411686e-01
3.132352941176470562e-01
3.132352941176470562e-01
3.205882352941176738e-01
3.250000000000000111e-01
3.323529411764705732e-01
3.367647058823529660e-01
3.397058823529411908e-01
3.397058823529411908e-01
3.411764705882353033e-01
3.411764705882353033e-01
3.411764705882353033e-01
3.411764705882353033e-01
3.499999999999999778e-01
3.602941176470588203e-01
3.691176470588235503e-01
3.485294117647058654e-01
3.029411764705882137e-01
2.323529411764705954e-01
1.735294117647058765e-01
9.705882352941176683e-02
3.529411764705882304e-02
5.882352941176470507e-03
3.382352941176470368e-02
1.294117647058823650e-01
1.823529411764705788e-01
2.588235294117647300e-01
3.058823529411764941e-01
3.220588235294117863e-01
3.250000000000000111e-01
3.279411764705882359e-01
3.308823529411764608e-01
3.352941176470587981e-01
3.367647058823529660e-01
3.367647058823529660e-01
3.397058823529411908e-01
3.397058823529411908e-01
3.382352941176470784e-01
3.382352941176470784e-01
3.367647058823529660e-01
3.382352941176470784e-01
3.382352941176470784e-01
3.397058823529411908e-01
3.411764705882353033e-01
3.426470588235294157e-01
3.411764705882353033e-01
3.411764705882353033e-01
3.397058823529411908e-01
3.397058823529411908e-01
3.382352941176470784e-01
3.382352941176470784e-01
3.367647058823529660e-01
3.367647058823529660e-01
3.352941176470587981e-01
3.352941176470587981e-01
3.323529411764705732e-01
3.294117647058823484e-01
3.294117647058823484e-01
3.279411764705882359e-01
3.264705882352941235e-01
3.250000000000000111e-01
3.235294117647058987e-01
3.235294117647058987e-01
3.205882352941176738e-01
3.205882352941176738e-01
3.191176470588235059e-01
3.147058823529411686e-01
3.073529411764706065e-01
3.044117647058823262e-01
2.985294117647058765e-01
2.941176470588235392e-01
2.897058823529412019e-01
2.838235294117646967e-01
2.764705882352941346e-01
2.750000000000000222e-01
2.705882352941176294e-01
2.705882352941176294e-01
2.705882352941176294e-01
2.720588235294117418e-01
2.735294117647059098e-01
2.764705882352941346e-01
2.808823529411764719e-01
2.867647058823529216e-01
2.941176470588235392e-01
2.985294117647058765e-01
3.044117647058823262e-01
3.073529411764706065e-01
3.147058823529411686e-01
3.205882352941176738e-01
3.205882352941176738e-01
3.220588235294117863e-01
3.250000000000000111e-01
3.294117647058823484e-01
3.294117647058823484e-01
3.294117647058823484e-01
3.294117647058823484e-01
3.279411764705882359e-01
3.264705882352941235e-01
3.264705882352941235e-01
3.250000000000000111e-01
3.250000000000000111e-01
3.235294117647058987e-01
3.220588235294117863e-01
3.235294117647058987e-01
3.279411764705882359e-01
3.294117647058823484e-01
3.294117647058823484e-01
3.294117647058823484e-01
3.279411764705882359e-01
3.279411764705882359e-01
3.279411764705882359e-01
3.264705882352941235e-01
3.264705882352941235e-01
3.279411764705882359e-01
3.294117647058823484e-01
3.294117647058823484e-01
3.338235294117646856e-01
3.338235294117646856e-01
3.323529411764705732e-01
3.323529411764705732e-01
3.308823529411764608e-01
3.308823529411764608e-01
3.308823529411764608e-01
3.294117647058823484e-01
3.294117647058823484e-01
3.294117647058823484e-01
3.323529411764705732e-01
3.323529411764705732e-01
3.338235294117646856e-01
3.323529411764705732e-01
3.323529411764705732e-01
3.323529411764705732e-01
3.323529411764705732e-01
3.308823529411764608e-01
3.294117647058823484e-01
3.294117647058823484e-01
3.279411764705882359e-01
3.264705882352941235e-01
3.294117647058823484e-01
3.308823529411764608e-01
3.338235294117646856e-01
3.323529411764705732e-01
3.323529411764705732e-01
3.323529411764705732e-01
3.323529411764705732e-01
3.308823529411764608e-01
3.308823529411764608e-01
3.308823529411764608e-01
3.308823529411764608e-01
3.308823529411764608e-01
3.323529411764705732e-01
3.323529411764705732e-01
3.323529411764705732e-01
3.323529411764705732e-01
3.323529411764705732e-01
3.323529411764705732e-01
3.323529411764705732e-01
3.323529411764705732e-01
3.323529411764705732e-01
3.308823529411764608e-01
3.308823529411764608e-01
3.308823529411764608e-01
3.308823529411764608e-01
3.308823529411764608e-01
3.308823529411764608e-01
3.308823529411764608e-01
3.308823529411764608e-01
3.308823529411764608e-01
3.308823529411764608e-01
3.308823529411764608e-01
3.323529411764705732e-01
3.323529411764705732e-01
3.338235294117646856e-01
3.338235294117646856e-01
3.338235294117646856e-01
3.323529411764705732e-01
3.308823529411764608e-01
3.294117647058823484e-01
3.294117647058823484e-01
3.264705882352941235e-01
3.264705882352941235e-01
3.264705882352941235e-01
3.250000000000000111e-01
3.235294117647058987e-01
3.235294117647058987e-01
3.235294117647058987e-01
3.220588235294117863e-01
3.205882352941176738e-01
3.205882352941176738e-01
3.191176470588235059e-01
3.191176470588235059e-01
3.191176470588235059e-01
3.147058823529411686e-01
3.147058823529411686e-01
3.191176470588235059e-01
3.250000000000000111e-01
3.294117647058823484e-01
3.294117647058823484e-01
3.294117647058823484e-01
3.279411764705882359e-01
3.264705882352941235e-01
3.294117647058823484e-01
3.367647058823529660e-01
3.499999999999999778e-01
3.602941176470588203e-01
3.661764705882352700e-01
3.382352941176470784e-01
2.867647058823529216e-01
2.205882352941176405e-01
1.617647058823529493e-01
7.794117647058823595e-02
2.500000000000000139e-02
0.000000000000000000e+00
3.970588235294117418e-02
1.352941176470588147e-01
1.867647058823529438e-01
2.647058823529411797e-01
3.044117647058823262e-01
3.132352941176470562e-01
3.191176470588235059e-01
3.191176470588235059e-01
3.220588235294117863e-01
3.250000000000000111e-01
3.279411764705882359e-01
3.308823529411764608e-01
3.308823529411764608e-01
3.338235294117646856e-01
3.352941176470587981e-01
3.338235294117646856e-01
3.338235294117646856e-01
3.323529411764705732e-01
3.308823529411764608e-01
3.308823529411764608e-01
3.308823529411764608e-01
3.294117647058823484e-01
3.294117647058823484e-01
3.294117647058823484e-01
3.294117647058823484e-01
3.323529411764705732e-01
3.323529411764705732e-01
3.323529411764705732e-01
3.308823529411764608e-01
3.308823529411764608e-01
3.308823529411764608e-01
3.294117647058823484e-01
3.279411764705882359e-01
3.264705882352941235e-01
3.264705882352941235e-01
3.264705882352941235e-01
3.250000000000000111e-01
3.235294117647058987e-01
3.220588235294117863e-01
3.205882352941176738e-01
3.191176470588235059e-01
3.147058823529411686e-01
3.117647058823529438e-01
3.073529411764706065e-01
3.058823529411764941e-01
3.014705882352941013e-01
2.985294117647058765e-01
2.882352941176470340e-01
2.867647058823529216e-01
2.808823529411764719e-01
2.735294117647059098e-01
2.691176470588235170e-01
2.647058823529411797e-01
2.647058823529411797e-01
2.647058823529411797e-01
2.647058823529411797e-01
2.661764705882352922e-01
2.705882352941176294e-01
2.764705882352941346e-01
2.838235294117646967e-01
2.867647058823529216e-01
2.941176470588235392e-01
2.985294117647058765e-01
3.014705882352941013e-01
3.029411764705882137e-01
3.102941176470588314e-01
3.117647058823529438e-01
3.161764705882352811e-01
3.205882352941176738e-01
3.205882352941176738e-01
3.220588235294117863e-01
3.220588235294117863e-01
3.220588235294117863e-01
3.205882352941176738e-01
3.205882352941176738e-01
3.205882352941176738e-01
3.205882352941176738e-01
3.205882352941176738e-01
3.191176470588235059e-01
3.191176470588235059e-01
3.205882352941176738e-01
3.205882352941176738e-01
3.205882352941176738e-01
3.220588235294117863e-01
3.235294117647058987e-01
3.235294117647058987e-01
3.235294117647058987e-01
3.250000000000000111e-01
3.250000000000000111e-01
3.250000000000000111e-01
3.250000000000000111e-01
3.264705882352941235e-01
3.264705882352941235e-01
3.264705882352941235e-01
3.264705882352941235e-01
3.279411764705882359e-01
3.264705882352941235e-01
3.264705882352941235e-01
3.279411764705882359e-01
3.279411764705882359e-01
3.264705882352941235e-01
3.264705882352941235e-01
3.279411764705882359e-01
3.279411764705882359e-01
3.279411764705882359e-01
3.279411764705882359e-01
3.279411764705882359e-01
3.279411764705882359e-01
3.294117647058823484e-01
3.294117647058823484e-01
3.294117647058823484e-01
3.294117647058823484e-01
3.294117647058823484e-01
3.308823529411764608e-01
3.308823529411764608e-01
3.308823529411764608e-01
3.323529411764705732e-01
3.323529411764705732e-01
3.323529411764705732e-01
3.323529411764705732e-01
3.308823529411764608e-01
3.308823529411764608e-01
3.308823529411764608e-01
3.308823529411764608e-01
3.308823529411764608e-01
3.308823529411764608e-01
3.308823529411764608e-01
3.308823529411764608e-01
3.308823529411764608e-01
3.308823529411764608e-01
3.294117647058823484e-01
3.294117647058823484e-01
3.279411764705882359e-01
3.279411764705882359e-01
3.279411764705882359e-01
3.264705882352941235e-01
3.264705882352941235e-01
3.250000000000000111e-01
3.250000000000000111e-01
3.250000000000000111e-01
3.147058823529411686e-01
3.147058823529411686e-01
3.147058823529411686e-01
3.147058823529411686e-01
3.176470588235293935e-01
3.205882352941176738e-01
4.191176470588235392e-01
4.235294117647058765e-01
4.308823529411764941e-01
4.382352941176470562e-01
4.441176470588235059e-01
4.514705882352941235e-01
4.602941176470587981e-01
4.647058823529411908e-01
3.985294117647059098e-01
4.647058823529411908e-01
4.602941176470587981e-01
4.485294117647058987e-01
4.426470588235293935e-01
4.382352941176470562e-01
4.279411764705882137e-01
4.205882352941176516e-01
4.191176470588235392e-01
4.147058823529412019e-01
3.102941176470588314e-01
3.088235294117647189e-01
4.191176470588235392e-01
4.220588235294117641e-01
4.191176470588235392e-01
4.205882352941176516e-01
4.205882352941176516e-01
4.191176470588235392e-01
4.544117647058823484e-01
4.500000000000000111e-01
4.338235294117647189e-01
4.176470588235294268e-01
4.235294117647058765e-01
4.308823529411764941e-01
4.323529411764706065e-01
4.308823529411764941e-01
3.352941176470587981e-01
3.323529411764705732e-01
3.308823529411764608e-01
3.294117647058823484e-01
3.279411764705882359e-01
3.220588235294117863e-01
3.117647058823529438e-01
2.985294117647058765e-01
2.779411764705882470e-01
2.808823529411764719e-01
2.794117647058823595e-01
3.455882352941176405e-01
4.102941176470588092e-01
4.338235294117647189e-01
5.014705882352941124e-01
5.264705882352941346e-01
5.558823529411764941e-01
5.573529411764706065e-01
5.102941176470587870e-01
4.632352941176470784e-01
4.000000000000000222e-01
3.691176470588235503e-01
3.367647058823529660e-01
3.191176470588235059e-01
3.132352941176470562e-01
3.073529411764706065e-01
3.058823529411764941e-01
3.044117647058823262e-01
3.044117647058823262e-01
3.044117647058823262e-01
3.044117647058823262e-01
3.029411764705882137e-01
3.029411764705882137e-01
3.029411764705882137e-01
3.029411764705882137e-01
3.044117647058823262e-01
3.029411764705882137e-01
2.985294117647058765e-01
2.955882352941176516e-01
2.941176470588235392e-01
2.941176470588235392e-01
2.941176470588235392e-01
2.926470588235294268e-01
2.926470588235294268e-01
2.926470588235294268e-01
2.926470588235294268e-01
2.926470588235294268e-01
2.897058823529412019e-01
2.867647058823529216e-01
2.823529411764705843e-01
2.794117647058823595e-01
2.779411764705882470e-01
2.750000000000000222e-01
2.705882352941176294e-01
2.647058823529411797e-01
2.617647058823529549e-01
2.558823529411764497e-01
2.514705882352941124e-01
2.485294117647058876e-01
2.441176470588235226e-01
2.382352941176470451e-01
2.382352941176470451e-01
2.382352941176470451e-01
2.397058823529411853e-01
2.411764705882352977e-01
2.411764705882352977e-01
2.441176470588235226e-01
2.441176470588235226e-01
2.470588235294117752e-01
2.500000000000000000e-01
2.558823529411764497e-01
2.632352941176470673e-01
2.691176470588235170e-01
2.750000000000000222e-01
2.808823529411764719e-01
2.867647058823529216e-01
2.926470588235294268e-01
2.970588235294117641e-01
3.014705882352941013e-01
3.073529411764706065e-01
3.088235294117647189e-01
3.107843137254901467e-01
3.127450980392157409e-01
3.147058823529411686e-01
3.147058823529411686e-01
3.147058823529411686e-01
3.147058823529411686e-01
3.147058823529411686e-01
3.147058823529411686e-01
3.132352941176470562e-01
3.132352941176470562e-01
3.132352941176470562e-01
3.132352941176470562e-01
3.132352941176470562e-01
3.132352941176470562e-01
3.132352941176470562e-01
3.132352941176470562e-01
3.132352941176470562e-01
3.132352941176470562e-01
3.132352941176470562e-01
3.147058823529411686e-01
3.147058823529411686e-01
3.132352941176470562e-01
3.102941176470588314e-01
3.102941176470588314e-01
3.102941176470588314e-01
3.132352941176470562e-01
3.117647058823529438e-01
3.073529411764706065e-01
3.058823529411764941e-01
3.029411764705882137e-01
3.044117647058823262e-01
3.044117647058823262e-01
3.044117647058823262e-01
3.044117647058823262e-01
3.044117647058823262e-01
3.029411764705882137e-01
3.014705882352941013e-01
3.014705882352941013e-01
3.058823529411764941e-01
3.088235294117647189e-01
3.102941176470588314e-01
3.117647058823529438e-01
3.132352941176470562e-01
3.147058823529411686e-01
3.147058823529411686e-01
3.147058823529411686e-01
3.147058823529411686e-01
3.161764705882352811e-01
3.161764705882352811e-01
3.191176470588235059e-01
3.191176470588235059e-01
3.191176470588235059e-01
3.205882352941176738e-01
3.235294117647058987e-01
3.250000000000000111e-01
3.279411764705882359e-01
3.279411764705882359e-01
3.279411764705882359e-01
3.279411764705882359e-01
3.279411764705882359e-01
3.264705882352941235e-01
3.264705882352941235e-01
3.264705882352941235e-01
3.264705882352941235e-01
3.264705882352941235e-01
3.264705882352941235e-01
3.250000000000000111e-01
3.250000000000000111e-01
3.279411764705882359e-01
3.294117647058823484e-01
3.264705882352941235e-01
3.235294117647058987e-01
3.205882352941176738e-01
3.205882352941176738e-01
3.205882352941176738e-01
3.205882352941176738e-01
3.191176470588235059e-01
3.191176470588235059e-01
3.191176470588235059e-01
3.191176470588235059e-01
3.205882352941176738e-01
3.220588235294117863e-01
3.250000000000000111e-01
3.264705882352941235e-01
3.264705882352941235e-01
3.235294117647058987e-01
3.205882352941176738e-01
3.161764705882352811e-01
3.132352941176470562e-01
3.088235294117647189e-01
3.058823529411764941e-01
3.058823529411764941e-01
3.088235294117647189e-01
3.132352941176470562e-01
3.161764705882352811e-01
3.205882352941176738e-01
3.220588235294117863e-01
3.264705882352941235e-01
3.294117647058823484e-01
3.323529411764705732e-01
3.338235294117646856e-01
3.308823529411764608e-01
3.279411764705882359e-01
3.250000000000000111e-01
3.250000000000000111e-01
3.250000000000000111e-01
3.235294117647058987e-01
3.235294117647058987e-01
3.220588235294117863e-01
3.220588235294117863e-01
3.205882352941176738e-01
3.073529411764706065e-01
2.970588235294117641e-01
2.720588235294117418e-01
2.691176470588235170e-01
1.000000000000000000e+00
3.220588235294117863e-01
3.867647058823529549e-01
4.029411764705882470e-01
4.823529411764705954e-01
5.044117647058823373e-01
5.220588235294117974e-01
5.308823529411764719e-01
4.955882352941176627e-01
4.558823529411764608e-01
4.073529411764705843e-01
3.750000000000000000e-01
3.455882352941176405e-01
3.264705882352941235e-01
3.132352941176470562e-01
3.073529411764706065e-01
3.058823529411764941e-01
3.058823529411764941e-01
3.058823529411764941e-01
3.058823529411764941e-01
3.058823529411764941e-01
3.044117647058823262e-01
3.029411764705882137e-01
3.044117647058823262e-01
3.044117647058823262e-01
3.044117647058823262e-01
3.029411764705882137e-01
3.029411764705882137e-01
3.029411764705882137e-01
3.044117647058823262e-01
3.029411764705882137e-01
2.999999999999999889e-01
2.955882352941176516e-01
2.941176470588235392e-01
2.926470588235294268e-01
2.926470588235294268e-01
2.926470588235294268e-01
2.911764705882353144e-01
2.911764705882353144e-01
2.897058823529412019e-01
2.838235294117646967e-01
2.794117647058823595e-01
2.735294117647059098e-01
2.691176470588235170e-01
2.647058823529411797e-01
2.602941176470588425e-01
2.558823529411764497e-01
2.514705882352941124e-01
2.500000000000000000e-01
2.470588235294117752e-01
2.441176470588235226e-01
2.397058823529411853e-01
2.382352941176470451e-01
2.323529411764705954e-01
2.308823529411764830e-01
2.323529411764705954e-01
2.338235294117647078e-01
2.382352941176470451e-01
2.426470588235294101e-01
2.455882352941176350e-01
2.529411764705882248e-01
2.573529411764705621e-01
2.632352941176470673e-01
2.705882352941176294e-01
2.764705882352941346e-01
2.808823529411764719e-01
2.852941176470588092e-01
2.911764705882353144e-01
2.955882352941176516e-01
2.985294117647058765e-01
3.044117647058823262e-01
3.073529411764706065e-01
3.102941176470588314e-01
3.161764705882352811e-01
3.176470588235293935e-01
3.205882352941176738e-01
3.220588235294117863e-01
3.264705882352941235e-01
3.264705882352941235e-01
3.250000000000000111e-01
3.235294117647058987e-01
3.235294117647058987e-01
3.213235294117647300e-01
3.191176470588235059e-01
3.191176470588235059e-01
3.191176470588235059e-01
3.161764705882352811e-01
3.132352941176470562e-01
3.088235294117647189e-01
3.073529411764706065e-01
3.073529411764706065e-01
3.073529411764706065e-01
3.073529411764706065e-01
3.073529411764706065e-01
3.073529411764706065e-01
3.073529411764706065e-01
3.073529411764706065e-01
3.073529411764706065e-01
3.073529411764706065e-01
3.073529411764706065e-01
3.088235294117647189e-01
3.088235294117647189e-01
3.088235294117647189e-01
3.102941176470588314e-01
3.088235294117647189e-01
3.058823529411764941e-01
3.044117647058823262e-01
3.058823529411764941e-01
3.088235294117647189e-01
3.102941176470588314e-01
3.102941176470588314e-01
3.102941176470588314e-01
3.147058823529411686e-01
3.147058823529411686e-01
3.161764705882352811e-01
3.161764705882352811e-01
3.191176470588235059e-01
3.191176470588235059e-01
3.205882352941176738e-01
3.235294117647058987e-01
3.235294117647058987e-01
3.250000000000000111e-01
3.250000000000000111e-01
3.250000000000000111e-01
3.250000000000000111e-01
3.250000000000000111e-01
3.250000000000000111e-01
3.250000000000000111e-01
3.250000000000000111e-01
3.250000000000000111e-01
3.250000000000000111e-01
3.250000000000000111e-01
3.250000000000000111e-01
3.250000000000000111e-01
3.250000000000000111e-01
3.250000000000000111e-01
3.250000000000000111e-01
3.250000000000000111e-01
3.250000000000000111e-01
3.250000000000000111e-01
3.250000000000000111e-01
3.264705882352941235e-01
3.308823529411764608e-01
3.323529411764705732e-01
3.352941176470587981e-01
3.352941176470587981e-01
3.352941176470587981e-01
3.338235294117646856e-01
3.338235294117646856e-01
3.338235294117646856e-01
3.323529411764705732e-01
3.323529411764705732e-01
3.323529411764705732e-01
3.323529411764705732e-01
3.323529411764705732e-01
3.338235294117646856e-01
3.338235294117646856e-01
3.338235294117646856e-01
3.323529411764705732e-01
3.294117647058823484e-01
3.279411764705882359e-01
3.191176470588235059e-01
3.147058823529411686e-01
3.102941176470588314e-01
3.058823529411764941e-01
3.058823529411764941e-01
2.999999999999999889e-01
2.985294117647058765e-01
3.029411764705882137e-01
3.044117647058823262e-01
3.117647058823529438e-01
3.205882352941176738e-01
3.220588235294117863e-01
3.264705882352941235e-01
3.294117647058823484e-01
3.323529411764705732e-01
3.323529411764705732e-01
3.338235294117646856e-01
3.352941176470587981e-01
3.352941176470587981e-01
3.352941176470587981e-01
3.367647058823529660e-01
3.382352941176470784e-01
3.397058823529411908e-01
3.382352941176470784e-01
3.382352941176470784e-01
3.323529411764705732e-01
3.264705882352941235e-01
3.147058823529411686e-01
2.911764705882353144e-01
2.764705882352941346e-01
2.750000000000000222e-01
3.411764705882353033e-01
4.000000000000000222e-01
4.470588235294117863e-01
5.000000000000000000e-01
5.264705882352941346e-01
5.514705882352941568e-01
5.588235294117647189e-01
4.955882352941176627e-01
4.602941176470587981e-01
4.088235294117646967e-01
3.691176470588235503e-01
3.426470588235294157e-01
3.235294117647058987e-01
3.205882352941176738e-01
3.161764705882352811e-01
3.147058823529411686e-01
3.088235294117647189e-01
3.073529411764706065e-01
3.058823529411764941e-01
3.073529411764706065e-01
3.073529411764706065e-01
3.088235294117647189e-01
3.088235294117647189e-01
3.088235294117647189e-01
3.088235294117647189e-01
3.102941176470588314e-01
3.102941176470588314e-01
3.102941176470588314e-01
3.088235294117647189e-01
3.088235294117647189e-01
3.073529411764706065e-01
3.058823529411764941e-01
3.044117647058823262e-01
3.044117647058823262e-01
3.014705882352941013e-01
3.014705882352941013e-01
2.999999999999999889e-01
2.970588235294117641e-01
2.911764705882353144e-01
2.852941176470588092e-01
2.779411764705882470e-01
2.705882352941176294e-01
2.676470588235294046e-01
2.647058823529411797e-01
2.602941176470588425e-01
2.529411764705882248e-01
2.514705882352941124e-01
2.441176470588235226e-01
2.426470588235294101e-01
2.367647058823529327e-01
2.323529411764705954e-01
2.308823529411764830e-01
2.294117647058823428e-01
2.294117647058823428e-01
2.323529411764705954e-01
2.338235294117647078e-01
2.367647058823529327e-01
2.426470588235294101e-01
2.455882352941176350e-01
2.500000000000000000e-01
2.573529411764705621e-01
2.632352941176470673e-01
2.720588235294117418e-01
2.794117647058823595e-01
3.147058823529411686e-01
3.147058823529411686e-01
3.147058823529411686e-01
3.147058823529411686e-01
3.147058823529411686e-01
3.205882352941176738e-01
4.176470588235294268e-01
4.220588235294117641e-01
4.294117647058823262e-01
4.411764705882352811e-01
4.455882352941176738e-01
4.544117647058823484e-01
4.602941176470587981e-01
4.647058823529411908e-01
4.676470588235294157e-01
4.661764705882353033e-01
4.602941176470587981e-01
4.514705882352941235e-01
4.441176470588235059e-01
4.367647058823529438e-01
4.294117647058823262e-01
4.220588235294117641e-01
4.176470588235294268e-01
4.161764705882353144e-01
3.250000000000000111e-01
3.250000000000000111e-01
4.705882352941176405e-01
4.294117647058823262e-01
4.294117647058823262e-01
4.294117647058823262e-01
4.352941176470588314e-01
4.264705882352941013e-01
4.176470588235294268e-01
4.352941176470588314e-01
4.367647058823529438e-01
4.367647058823529438e-01
4.382352941176470562e-01
4.455882352941176738e-01
4.470588235294117863e-01
4.529411764705882359e-01
4.529411764705882359e-01
3.220588235294117863e-01
3.220588235294117863e-01
3.220588235294117863e-01
3.220588235294117863e-01
3.220588235294117863e-01
3.220588235294117863e-01
3.220588235294117863e-01
3.220588235294117863e-01
3.220588235294117863e-01
3.235294117647058987e-01
3.235294117647058987e-01
3.235294117647058987e-01
3.235294117647058987e-01
3.250000000000000111e-01
3.250000000000000111e-01
3.250000000000000111e-01
3.250000000000000111e-01
3.250000000000000111e-01
3.264705882352941235e-01
3.264705882352941235e-01
3.264705882352941235e-01
3.264705882352941235e-01
3.279411764705882359e-01
3.279411764705882359e-01
3.279411764705882359e-01
3.279411764705882359e-01
3.279411764705882359e-01
3.279411764705882359e-01
3.279411764705882359e-01
3.279411764705882359e-01
3.279411764705882359e-01
3.279411764705882359e-01
3.279411764705882359e-01
3.279411764705882359e-01
3.279411764705882359e-01
3.279411764705882359e-01
3.294117647058823484e-01
3.294117647058823484e-01
3.294117647058823484e-01
3.294117647058823484e-01
3.294117647058823484e-01
3.294117647058823484e-01
3.294117647058823484e-01
3.308823529411764608e-01
3.308823529411764608e-01
3.308823529411764608e-01
3.308823529411764608e-01
3.308823529411764608e-01
3.308823529411764608e-01
3.308823529411764608e-01
3.308823529411764608e-01
3.308823529411764608e-01
3.308823529411764608e-01
3.308823529411764608e-01
3.294117647058823484e-01
3.279411764705882359e-01
3.264705882352941235e-01
3.264705882352941235e-01
3.235294117647058987e-01
3.205882352941176738e-01
3.205882352941176738e-01
3.191176470588235059e-01
3.176470588235293935e-01
3.147058823529411686e-01
3.132352941176470562e-01
3.132352941176470562e-01
3.161764705882352811e-01
3.205882352941176738e-01
3.235294117647058987e-01
3.264705882352941235e-01
3.279411764705882359e-01
3.294117647058823484e-01
3.308823529411764608e-01
3.308823529411764608e-01
3.308823529411764608e-01
3.294117647058823484e-01
3.294117647058823484e-01
3.294117647058823484e-01
3.294117647058823484e-01
3.279411764705882359e-01
3.279411764705882359e-01
3.279411764705882359e-01
3.279411764705882359e-01
3.235294117647058987e-01
3.191176470588235059e-01
2.999999999999999889e-01
2.735294117647059098e-01
2.441176470588235226e-01
2.220588235294117530e-01
8.617647058823529882e-01
8.602941176470588758e-01
8.823529411764706454e-02
2.794117647058823595e-01
3.602941176470588203e-01
4.029411764705882470e-01
5.117647058823528994e-01
5.073529411764705621e-01
4.705882352941176405e-01
4.176470588235294268e-01
3.897058823529411797e-01
3.588235294117647078e-01
3.499999999999999778e-01
3.411764705882353033e-01
3.382352941176470784e-01
3.382352941176470784e-01
3.367647058823529660e-01
3.367647058823529660e-01
3.367647058823529660e-01
3.367647058823529660e-01
3.367647058823529660e-01
3.367647058823529660e-01
3.352941176470587981e-01
3.352941176470587981e-01
3.352941176470587981e-01
3.352941176470587981e-01
3.338235294117646856e-01
3.338235294117646856e-01
3.338235294117646856e-01
3.323529411764705732e-01
3.323529411764705732e-01
3.323529411764705732e-01
3.308823529411764608e-01
3.308823529411764608e-01
3.308823529411764608e-01
3.308823529411764608e-01
3.294117647058823484e-01
3.294117647058823484e-01
3.294117647058823484e-01
3.279411764705882359e-01
3.264705882352941235e-01
3.264705882352941235e-01
3.250000000000000111e-01
3.250000000000000111e-01
3.235294117647058987e-01
3.235294117647058987e-01
3.205882352941176738e-01
3.161764705882352811e-01
3.147058823529411686e-01
3.102941176470588314e-01
3.088235294117647189e-01
3.073529411764706065e-01
3.058823529411764941e-01
3.029411764705882137e-01
3.029411764705882137e-01
2.999999999999999889e-01
2.985294117647058765e-01
2.970588235294117641e-01
2.955882352941176516e-01
2.941176470588235392e-01
2.941176470588235392e-01
2.941176470588235392e-01
2.955882352941176516e-01
2.955882352941176516e-01
2.970588235294117641e-01
2.970588235294117641e-01
2.970588235294117641e-01
2.985294117647058765e-01
2.999999999999999889e-01
3.014705882352941013e-01
3.058823529411764941e-01
3.088235294117647189e-01
3.102941176470588314e-01
3.117647058823529438e-01
3.132352941176470562e-01
3.147058823529411686e-01
3.176470588235293935e-01
3.191176470588235059e-01
3.205882352941176738e-01
3.220588235294117863e-01
3.235294117647058987e-01
3.250000000000000111e-01
3.250000000000000111e-01
3.250000000000000111e-01
3.250000000000000111e-01
3.250000000000000111e-01
3.250000000000000111e-01
3.250000000000000111e-01
3.250000000000000111e-01
3.250000000000000111e-01
3.250000000000000111e-01
3.250000000000000111e-01
3.264705882352941235e-01
3.264705882352941235e-01
3.250000000000000111e-01
3.250000000000000111e-01
3.235294117647058987e-01
3.235294117647058987e-01
3.235294117647058987e-01
3.220588235294117863e-01
3.205882352941176738e-01
3.205882352941176738e-01
3.205882352941176738e-01
3.191176470588235059e-01
3.191176470588235059e-01
3.191176470588235059e-01
3.191176470588235059e-01
3.191176470588235059e-01
3.191176470588235059e-01
3.191176470588235059e-01
3.191176470588235059e-01
3.191176470588235059e-01
3.191176470588235059e-01
3.191176470588235059e-01
3.191176470588235059e-01
3.205882352941176738e-01
3.205882352941176738e-01
3.235294117647058987e-01
3.250000000000000111e-01
3.250000000000000111e-01
3.250000000000000111e-01
3.250000000000000111e-01
3.250000000000000111e-01
3.250000000000000111e-01
3.250000000000000111e-01
3.250000000000000111e-01
3.250000000000000111e-01
3.250000000000000111e-01
3.250000000000000111e-01
3.250000000000000111e-01
3.250000000000000111e-01
3.250000000000000111e-01
3.264705882352941235e-01
3.264705882352941235e-01
3.264705882352941235e-01
3.264705882352941235e-01
3.264705882352941235e-01
3.264705882352941235e-01
3.264705882352941235e-01
3.264705882352941235e-01
3.264705882352941235e-01
3.264705882352941235e-01
3.264705882352941235e-01
3.264705882352941235e-01
3.264705882352941235e-01
3.264705882352941235e-01
3.250000000000000111e-01
3.250000000000000111e-01
3.250000000000000111e-01
3.235294117647058987e-01
3.235294117647058987e-01
3.235294117647058987e-01
3.220588235294117863e-01
3.220588235294117863e-01
3.205882352941176738e-01
3.205882352941176738e-01
3.205882352941176738e-01
3.205882352941176738e-01
3.191176470588235059e-01
3.191176470588235059e-01
3.191176470588235059e-01
3.191176470588235059e-01
3.191176470588235059e-01
3.205882352941176738e-01
3.220588235294117863e-01
3.264705882352941235e-01
3.294117647058823484e-01
3.323529411764705732e-01
3.338235294117646856e-01
3.367647058823529660e-01
3.352941176470587981e-01
3.352941176470587981e-01
3.352941176470587981e-01
3.338235294117646856e-01
3.338235294117646856e-01
3.323529411764705732e-01
3.323529411764705732e-01
3.323529411764705732e-01
3.308823529411764608e-01
3.308823529411764608e-01
3.308823529411764608e-01
3.294117647058823484e-01
3.205882352941176738e-01
2.955882352941176516e-01
2.500000000000000000e-01
2.323529411764705954e-01
1.970588235294117585e-01
8.529411764705882026e-01
8.235294117647058432e-01
1.573529411764705843e-01
3.117647058823529438e-01
3.705882352941176627e-01
4.176470588235294268e-01
5.014705882352941124e-01
4.911764705882352700e-01
4.470588235294117863e-01
4.117647058823529216e-01
3.838235294117647300e-01
