4.644808743169399207e-02
4.644808743169399207e-02
5.258675750479031852e-02
5.872542757788665191e-02
6.486409765098283264e-02
7.100276772407916603e-02
7.714143779717549942e-02
8.328010787027183282e-02
8.941877794336816621e-02
9.555744801646434694e-02
1.016961180895606803e-01
1.078347881626570137e-01
1.139734582357533332e-01
1.201121283088496666e-01
1.262507983819458612e-01
1.323894684550421808e-01
1.385281385281385280e-01
1.446668086012348475e-01
1.508054786743311948e-01
1.569441487474273478e-01
1.630828188205236950e-01
1.692214888936200146e-01
1.753601589667163618e-01
1.814988290398126813e-01
1.876374991129088621e-01
1.937761691860052093e-01
1.999148392591015289e-01
2.060535093321978761e-01
2.121921794052941956e-01
2.183308494783903764e-01
2.244695195514867236e-01
2.306081896245830432e-01
2.367468596976793627e-01
2.428855297707757099e-01
2.490241998438718907e-01
2.551628699169682379e-01
2.613015399900645575e-01
2.674402100631608770e-01
2.735788801362571965e-01
2.797175502093534050e-01
2.858562202824498910e-01
2.919948903555460440e-01
2.981335604286424190e-01
3.042722305017387385e-01
3.104109005748348915e-01
3.165495706479313776e-01
3.226882407210275860e-01
3.288269107941237390e-01
3.349655808672202251e-01
3.411042509403164336e-01
3.472429210134129196e-01
3.533815910865090726e-01
3.595202611596055586e-01
3.656589312327017671e-01
3.717976013057979201e-01
3.779362713788944061e-01
3.840749414519906146e-01
3.902136115250867676e-01
3.963522815981832537e-01
4.024909516712794066e-01
4.086296217443758927e-01
4.147682918174721012e-01
4.209069618905685872e-01
4.270456319636647402e-01
4.331843020367609487e-01
4.393229721098574347e-01
4.454616421829535877e-01
4.516003122560497962e-01
4.577389823291462823e-01
4.638776524022424352e-01
4.700163224753389213e-01
4.761549925484351298e-01
4.822936626215316158e-01
4.884323326946277688e-01
4.945710027677239773e-01
5.007096728408204633e-01
5.068483429139166718e-01
5.129870129870127693e-01
5.191256830601093109e-01
3.087431693989071135e-01
3.060109289617486406e-01
3.005464480874316946e-01
9.016393442622951115e-02
9.016393442622951115e-02
9.016393442622951115e-02
9.016393442622951115e-02
9.016393442622951115e-02
9.016393442622951115e-02
9.016393442622951115e-02
9.016393442622951115e-02
9.016393442622951115e-02
9.016393442622951115e-02
9.016393442622951115e-02
9.016393442622951115e-02
9.016393442622951115e-02
9.016393442622951115e-02
9.016393442622951115e-02
9.016393442622951115e-02
9.016393442622951115e-02
9.016393442622951115e-02
9.016393442622951115e-02
9.016393442622951115e-02
9.016393442622951115e-02
9.016393442622951115e-02
9.016393442622951115e-02
9.016393442622951115e-02
9.016393442622951115e-02
9.016393442622951115e-02
9.016393442622951115e-02
9.016393442622951115e-02
9.016393442622951115e-02
9.016393442622951115e-02
9.016393442622951115e-02
9.016393442622951115e-02
9.016393442622951115e-02
9.016393442622951115e-02
9.016393442622951115e-02
9.016393442622951115e-02
3.005464480874316946e-01
3.032786885245901676e-01
3.114754098360655865e-01
5.109289617486338919e-01
7.513661202185791810e-01
7.486338797814208190e-01
7.486338797814208190e-01
5.573770491803278215e-01
5.628415300546447675e-01
5.409836065573770947e-01
5.409836065573770947e-01
5.355191256830601487e-01
5.464480874316940406e-01
5.519125683060108756e-01
5.519125683060108756e-01
5.546448087431693486e-01
5.464480874316940406e-01
5.437158469945355677e-01
5.355191256830601487e-01
5.382513661202186217e-01
5.382513661202186217e-01
5.382513661202186217e-01
5.355191256830601487e-01
5.355191256830601487e-01
5.245901639344262568e-01
5.191256830601093109e-01
5.136612021857923649e-01
5.081967213114754189e-01
5.000000000000000000e-01
4.945355191256830540e-01
4.918032786885245811e-01
4.863387978142076351e-01
4.754098360655737432e-01
4.726775956284153257e-01
4.699453551912568527e-01
4.644808743169399068e-01
4.590163934426229608e-01
4.508196721311475419e-01
4.398907103825136500e-01
4.398907103825136500e-01
4.316939890710382310e-01
4.289617486338797581e-01
4.316939890710382310e-01
4.398907103825136500e-01
4.398907103825136500e-01
4.371584699453551770e-01
4.344262295081967040e-01
4.344262295081967040e-01
4.344262295081967040e-01
4.398907103825136500e-01
4.562841530054644879e-01
4.617486338797814338e-01
4.726775956284153257e-01
4.781420765027322162e-01
4.781420765027322162e-01
4.863387978142076351e-01
4.945355191256830540e-01
5.027322404371584730e-01
5.081967213114754189e-01
5.163934426229508379e-01
5.218579234972677838e-01
5.218579234972677838e-01
5.245901639344262568e-01
5.245901639344262568e-01
5.273224043715847298e-01
5.355191256830601487e-01
5.437158469945355677e-01
5.546448087431693486e-01
5.546448087431693486e-01
5.491803278688525136e-01
5.464480874316940406e-01
5.437158469945355677e-01
5.437158469945355677e-01
5.409836065573770947e-01
5.409836065573770947e-01
5.382513661202186217e-01
5.464480874316940406e-01
5.601092896174862945e-01
5.655737704918032405e-01
5.491803278688525136e-01
5.491803278688525136e-01
5.382513661202186217e-01
5.327868852459016757e-01
5.300546448087432028e-01
5.300546448087432028e-01
5.300546448087432028e-01
5.327868852459016757e-01
5.327868852459016757e-01
5.355191256830601487e-01
5.327868852459016757e-01
5.273224043715847298e-01
5.300546448087432028e-01
5.355191256830601487e-01
5.437158469945355677e-01
5.491803278688525136e-01
5.519125683060108756e-01
5.546448087431693486e-01
5.573770491803278215e-01
5.573770491803278215e-01
5.573770491803278215e-01
5.546448087431693486e-01
5.491803278688525136e-01
5.491803278688525136e-01
5.464480874316940406e-01
5.437158469945355677e-01
5.355191256830601487e-01
5.327868852459016757e-01
5.355191256830601487e-01
5.382513661202186217e-01
5.382513661202186217e-01
5.382513661202186217e-01
5.409836065573770947e-01
5.409836065573770947e-01
5.327868852459016757e-01
5.300546448087432028e-01
5.163934426229508379e-01
5.136612021857923649e-01
5.109289617486338919e-01
5.109289617486338919e-01
5.191256830601093109e-01
5.218579234972677838e-01
5.245901639344262568e-01
5.245901639344262568e-01
5.245901639344262568e-01
5.245901639344262568e-01
5.245901639344262568e-01
5.218579234972677838e-01
5.218579234972677838e-01
5.218579234972677838e-01
5.218579234972677838e-01
5.218579234972677838e-01
5.218579234972677838e-01
5.191256830601093109e-01
5.191256830601093109e-01
5.191256830601093109e-01
5.191256830601093109e-01
5.163934426229508379e-01
5.163934426229508379e-01
5.163934426229508379e-01
5.163934426229508379e-01
5.163934426229508379e-01
5.163934426229508379e-01
5.109289617486338919e-01
5.054644808743169460e-01
5.000000000000000000e-01
4.945355191256830540e-01
5.027322404371584730e-01
5.081967213114754189e-01
5.109289617486338919e-01
5.027322404371584730e-01
5.027322404371584730e-01
5.081967213114754189e-01
5.163934426229508379e-01
5.245901639344262568e-01
5.355191256830601487e-01
5.491803278688525136e-01
5.546448087431693486e-01
5.546448087431693486e-01
5.546448087431693486e-01
5.683060109289617134e-01
5.819672131147540783e-01
5.819672131147540783e-01
5.846994535519125513e-01
5.819672131147540783e-01
5.819672131147540783e-01
5.655737704918032405e-01
5.573770491803278215e-01
5.300546448087432028e-01
4.836065573770491621e-01
4.590163934426229608e-01
4.426229508196721230e-01
4.918032786885245811e-01
5.409836065573770947e-01
5.928961748633879703e-01
6.256830601092896460e-01
6.284153005464481190e-01
6.174863387978142271e-01
6.038251366120218622e-01
5.956284153005464432e-01
5.846994535519125513e-01
5.765027322404371324e-01
5.737704918032786594e-01
5.737704918032786594e-01
5.683060109289617134e-01
5.628415300546447675e-01
5.628415300546447675e-01
5.573770491803278215e-01
5.573770491803278215e-01
5.546448087431693486e-01
5.546448087431693486e-01
5.519125683060108756e-01
5.491803278688525136e-01
5.491803278688525136e-01
5.437158469945355677e-01
5.437158469945355677e-01
5.464480874316940406e-01
5.464480874316940406e-01
5.464480874316940406e-01
5.437158469945355677e-01
5.409836065573770947e-01
5.382513661202186217e-01
5.355191256830601487e-01
5.327868852459016757e-01
5.218579234972677838e-01
5.218579234972677838e-01
5.245901639344262568e-01
5.245901639344262568e-01
5.163934426229508379e-01
5.109289617486338919e-01
5.136612021857923649e-01
5.081967213114754189e-01
5.027322404371584730e-01
4.945355191256830540e-01
4.945355191256830540e-01
4.890710382513661081e-01
4.808743169398906891e-01
4.781420765027322162e-01
4.781420765027322162e-01
4.726775956284153257e-01
4.699453551912568527e-01
4.644808743169399068e-01
4.617486338797814338e-01
4.617486338797814338e-01
4.590163934426229608e-01
4.754098360655737432e-01
4.781420765027322162e-01
5.000000000000000000e-01
5.054644808743169460e-01
5.054644808743169460e-01
5.109289617486338919e-01
5.245901639344262568e-01
5.382513661202186217e-01
5.491803278688525136e-01
5.546448087431693486e-01
5.573770491803278215e-01
5.573770491803278215e-01
5.573770491803278215e-01
5.573770491803278215e-01
5.655737704918032405e-01
5.737704918032786594e-01
5.737704918032786594e-01
5.737704918032786594e-01
5.683060109289617134e-01
5.655737704918032405e-01
5.655737704918032405e-01
5.710382513661201864e-01
5.737704918032786594e-01
5.819672131147540783e-01
5.765027322404371324e-01
5.737704918032786594e-01
5.737704918032786594e-01
5.765027322404371324e-01
5.765027322404371324e-01
5.765027322404371324e-01
5.765027322404371324e-01
5.683060109289617134e-01
5.601092896174862945e-01
5.519125683060108756e-01
5.437158469945355677e-01
5.437158469945355677e-01
5.409836065573770947e-01
5.382513661202186217e-01
5.382513661202186217e-01
5.409836065573770947e-01
5.519125683060108756e-01
5.519125683060108756e-01
5.409836065573770947e-01
5.355191256830601487e-01
5.382513661202186217e-01
5.437158469945355677e-01
5.437158469945355677e-01
5.409836065573770947e-01
5.382513661202186217e-01
5.382513661202186217e-01
5.355191256830601487e-01
5.327868852459016757e-01
5.327868852459016757e-01
5.314207650273223837e-01
5.300546448087432028e-01
5.245901639344262568e-01
5.245901639344262568e-01
5.327868852459016757e-01
5.409836065573770947e-01
5.437158469945355677e-01
5.437158469945355677e-01
5.437158469945355677e-01
5.464480874316940406e-01
5.437158469945355677e-01
5.409836065573770947e-01
5.355191256830601487e-01
5.382513661202186217e-01
5.382513661202186217e-01
5.300546448087432028e-01
5.245901639344262568e-01
5.273224043715847298e-01
5.300546448087432028e-01
5.327868852459016757e-01
5.409836065573770947e-01
5.437158469945355677e-01
5.382513661202186217e-01
5.382513661202186217e-01
5.409836065573770947e-01
5.409836065573770947e-01
5.382513661202186217e-01
5.382513661202186217e-01
5.382513661202186217e-01
5.382513661202186217e-01
5.327868852459016757e-01
5.300546448087432028e-01
5.273224043715847298e-01
5.327868852459016757e-01
5.355191256830601487e-01
5.382513661202186217e-01
5.437158469945355677e-01
5.437158469945355677e-01
5.491803278688525136e-01
5.601092896174862945e-01
5.573770491803278215e-01
5.519125683060108756e-01
5.437158469945355677e-01
5.437158469945355677e-01
5.409836065573770947e-01
5.382513661202186217e-01
5.327868852459016757e-01
5.327868852459016757e-01
5.327868852459016757e-01
5.300546448087432028e-01
5.245901639344262568e-01
5.218579234972677838e-01
5.218579234972677838e-01
5.218579234972677838e-01
5.273224043715847298e-01
5.273224043715847298e-01
5.300546448087432028e-01
5.437158469945355677e-01
5.491803278688525136e-01
5.628415300546447675e-01
5.546448087431693486e-01
5.519125683060108756e-01
5.519125683060108756e-01
5.546448087431693486e-01
5.546448087431693486e-01
5.601092896174862945e-01
5.655737704918032405e-01
5.683060109289617134e-01
5.710382513661201864e-01
5.601092896174862945e-01
5.327868852459016757e-01
5.000000000000000000e-01
4.699453551912568527e-01
4.262295081967212851e-01
4.289617486338797581e-01
4.808743169398906891e-01
5.327868852459016757e-01
5.819672131147540783e-01
6.065573770491803351e-01
6.038251366120218622e-01
5.983606557377049162e-01
5.928961748633879703e-01
5.792349726775956054e-01
5.765027322404371324e-01
5.683060109289617134e-01
5.628415300546447675e-01
5.491803278688525136e-01
5.437158469945355677e-01
5.355191256830601487e-01
5.382513661202186217e-01
5.437158469945355677e-01
5.491803278688525136e-01
5.519125683060108756e-01
5.464480874316940406e-01
5.437158469945355677e-01
5.382513661202186217e-01
5.409836065573770947e-01
5.437158469945355677e-01
5.464480874316940406e-01
5.464480874316940406e-01
5.464480874316940406e-01
5.464480874316940406e-01
5.437158469945355677e-01
5.437158469945355677e-01
5.437158469945355677e-01
5.409836065573770947e-01
5.382513661202186217e-01
5.327868852459016757e-01
5.300546448087432028e-01
5.273224043715847298e-01
5.273224043715847298e-01
5.245901639344262568e-01
5.191256830601093109e-01
5.163934426229508379e-01
5.109289617486338919e-01
5.054644808743169460e-01
5.054644808743169460e-01
4.972677595628415270e-01
4.918032786885245811e-01
4.863387978142076351e-01
4.808743169398906891e-01
4.808743169398906891e-01
4.781420765027322162e-01
4.699453551912568527e-01
4.644808743169399068e-01
4.617486338797814338e-01
4.617486338797814338e-01
4.644808743169399068e-01
4.644808743169399068e-01
4.672131147540983798e-01
4.726775956284153257e-01
4.781420765027322162e-01
4.890710382513661081e-01
4.972677595628415270e-01
5.109289617486338919e-01
5.191256830601093109e-01
5.273224043715847298e-01
5.355191256830601487e-01
5.437158469945355677e-01
5.437158469945355677e-01
5.464480874316940406e-01
5.491803278688525136e-01
5.628415300546447675e-01
5.683060109289617134e-01
5.683060109289617134e-01
5.601092896174862945e-01
5.491803278688525136e-01
5.491803278688525136e-01
5.601092896174862945e-01
5.683060109289617134e-01
5.573770491803278215e-01
5.491803278688525136e-01
5.519125683060108756e-01
5.573770491803278215e-01
5.737704918032786594e-01
5.765027322404371324e-01
5.792349726775956054e-01
5.792349726775956054e-01
5.683060109289617134e-01
5.546448087431693486e-01
5.546448087431693486e-01
5.519125683060108756e-01
5.546448087431693486e-01
5.546448087431693486e-01
5.491803278688525136e-01
5.464480874316940406e-01
5.382513661202186217e-01
5.437158469945355677e-01
5.519125683060108756e-01
5.491803278688525136e-01
5.437158469945355677e-01
5.519125683060108756e-01
5.601092896174862945e-01
5.655737704918032405e-01
5.655737704918032405e-01
5.546448087431693486e-01
5.519125683060108756e-01
5.491803278688525136e-01
5.491803278688525136e-01
5.491803278688525136e-01
5.546448087431693486e-01
5.546448087431693486e-01
5.546448087431693486e-01
5.546448087431693486e-01
5.546448087431693486e-01
5.546448087431693486e-01
5.573770491803278215e-01
5.573770491803278215e-01
5.573770491803278215e-01
5.573770491803278215e-01
5.546448087431693486e-01
5.546448087431693486e-01
5.546448087431693486e-01
5.546448087431693486e-01
5.519125683060108756e-01
5.491803278688525136e-01
5.437158469945355677e-01
5.409836065573770947e-01
5.409836065573770947e-01
5.409836065573770947e-01
5.409836065573770947e-01
5.409836065573770947e-01
5.437158469945355677e-01
5.437158469945355677e-01
5.519125683060108756e-01
5.546448087431693486e-01
5.628415300546447675e-01
5.573770491803278215e-01
5.519125683060108756e-01
5.519125683060108756e-01
5.519125683060108756e-01
5.519125683060108756e-01
5.519125683060108756e-01
5.218579234972677838e-01
5.218579234972677838e-01
5.218579234972677838e-01
5.218579234972677838e-01
5.218579234972677838e-01
5.218579234972677838e-01
7.896174863387978027e-01
7.786885245901639108e-01
7.732240437158469648e-01
7.513661202185791810e-01
7.513661202185791810e-01
7.486338797814208190e-01
7.349726775956284541e-01
7.486338797814208190e-01
7.377049180327869271e-01
7.377049180327869271e-01
7.431693989071038731e-01
7.622950819672130729e-01
7.704918032786884918e-01
7.786885245901639108e-01
5.218579234972677838e-01
5.191256830601093109e-01
6.120218579234972811e-01
7.021857923497267784e-01
7.103825136612021973e-01
7.131147540983606703e-01
7.322404371584699811e-01
7.459016393442623460e-01
7.650273224043715459e-01
7.786885245901639108e-01
7.950819672131147486e-01
8.005464480874316946e-01
8.005464480874316946e-01
7.923497267759562757e-01
7.814207650273223837e-01
7.704918032786884918e-01
7.486338797814208190e-01
7.377049180327869271e-01
7.213114754098360892e-01
7.131147540983606703e-01
7.076502732240437243e-01
5.928961748633879703e-01
4.781420765027322162e-01
4.836065573770491621e-01
5.109289617486338919e-01
5.437158469945355677e-01
6.721311475409835756e-01
7.021857923497267784e-01
7.267759562841530352e-01
6.830601092896174675e-01
6.448087431693989569e-01
6.065573770491803351e-01
5.737704918032786594e-01
5.409836065573770947e-01
5.191256830601093109e-01
7.076502732240437243e-01
7.486338797814208190e-01
7.404371584699454001e-01
7.459016393442623460e-01
7.431693989071038731e-01
7.978142076502732216e-01
6.530054644808742648e-01
5.737704918032786594e-01
4.945355191256830540e-01
4.972677595628415270e-01
5.027322404371584730e-01
5.081967213114754189e-01
5.081967213114754189e-01
5.081967213114754189e-01
5.109289617486338919e-01
5.109289617486338919e-01
5.109289617486338919e-01
5.109289617486338919e-01
5.136612021857923649e-01
5.136612021857923649e-01
5.163934426229508379e-01
5.163934426229508379e-01
5.163934426229508379e-01
5.163934426229508379e-01
5.191256830601093109e-01
5.218579234972677838e-01
5.245901639344262568e-01
5.245901639344262568e-01
5.273224043715847298e-01
5.273224043715847298e-01
5.300546448087432028e-01
5.327868852459016757e-01
5.382513661202186217e-01
5.409836065573770947e-01
5.491803278688525136e-01
5.519125683060108756e-01
5.655737704918032405e-01
5.683060109289617134e-01
5.765027322404371324e-01
5.846994535519125513e-01
5.901639344262294973e-01
5.983606557377049162e-01
6.038251366120218622e-01
6.092896174863388081e-01
6.147540983606557541e-01
6.120218579234972811e-01
6.147540983606557541e-01
6.147540983606557541e-01
6.120218579234972811e-01
6.065573770491803351e-01
6.038251366120218622e-01
5.956284153005464432e-01
5.846994535519125513e-01
5.819672131147540783e-01
5.601092896174862945e-01
5.491803278688525136e-01
5.409836065573770947e-01
5.355191256830601487e-01
5.300546448087432028e-01
5.300546448087432028e-01
5.300546448087432028e-01
5.300546448087432028e-01
5.300546448087432028e-01
5.327868852459016757e-01
5.327868852459016757e-01
5.327868852459016757e-01
5.327868852459016757e-01
5.273224043715847298e-01
5.218579234972677838e-01
5.136612021857923649e-01
5.109289617486338919e-01
5.054644808743169460e-01
5.027322404371584730e-01
5.027322404371584730e-01
5.027322404371584730e-01
5.054644808743169460e-01
5.081967213114754189e-01
5.054644808743169460e-01
5.054644808743169460e-01
5.027322404371584730e-01
5.027322404371584730e-01
4.918032786885245811e-01
4.890710382513661081e-01
4.781420765027322162e-01
4.836065573770491621e-01
4.863387978142076351e-01
4.863387978142076351e-01
4.863387978142076351e-01
4.836065573770491621e-01
4.836065573770491621e-01
4.836065573770491621e-01
4.863387978142076351e-01
4.836065573770491621e-01
4.808743169398906891e-01
4.781420765027322162e-01
4.808743169398906891e-01
4.836065573770491621e-01
4.836065573770491621e-01
4.808743169398906891e-01
4.808743169398906891e-01
4.781420765027322162e-01
4.726775956284153257e-01
4.726775956284153257e-01
4.726775956284153257e-01
4.726775956284153257e-01
4.726775956284153257e-01
4.726775956284153257e-01
4.726775956284153257e-01
4.726775956284153257e-01
4.726775956284153257e-01
4.699453551912568527e-01
4.699453551912568527e-01
4.644808743169399068e-01
4.644808743169399068e-01
4.726775956284153257e-01
4.781420765027322162e-01
4.781420765027322162e-01
4.836065573770491621e-01
4.836065573770491621e-01
4.890710382513661081e-01
4.945355191256830540e-01
5.000000000000000000e-01
5.027322404371584730e-01
5.027322404371584730e-01
5.027322404371584730e-01
5.013661202185791810e-01
5.000000000000000000e-01
4.945355191256830540e-01
4.918032786885245811e-01
4.945355191256830540e-01
4.972677595628415270e-01
5.000000000000000000e-01
5.027322404371584730e-01
5.054644808743169460e-01
5.081967213114754189e-01
5.109289617486338919e-01
5.163934426229508379e-01
5.163934426229508379e-01
5.081967213114754189e-01
5.054644808743169460e-01
5.081967213114754189e-01
5.109289617486338919e-01
5.109289617486338919e-01
5.163934426229508379e-01
5.218579234972677838e-01
5.218579234972677838e-01
5.191256830601093109e-01
5.163934426229508379e-01
5.163934426229508379e-01
5.191256830601093109e-01
5.245901639344262568e-01
5.327868852459016757e-01
5.409836065573770947e-01
5.437158469945355677e-01
5.437158469945355677e-01
5.464480874316940406e-01
5.464480874316940406e-01
5.437158469945355677e-01
5.382513661202186217e-01
5.300546448087432028e-01
5.273224043715847298e-01
5.273224043715847298e-01
5.273224043715847298e-01
5.218579234972677838e-01
5.218579234972677838e-01
5.191256830601093109e-01
5.136612021857923649e-01
5.136612021857923649e-01
5.109289617486338919e-01
5.054644808743169460e-01
5.027322404371584730e-01
4.972677595628415270e-01
4.972677595628415270e-01
4.972677595628415270e-01
4.972677595628415270e-01
4.972677595628415270e-01
4.972677595628415270e-01
4.972677595628415270e-01
4.972677595628415270e-01
4.972677595628415270e-01
5.000000000000000000e-01
4.972677595628415270e-01
5.081967213114754189e-01
5.327868852459016757e-01
5.765027322404371324e-01
6.311475409836065920e-01
6.666666666666666297e-01
6.885245901639344135e-01
6.530054644808742648e-01
6.092896174863388081e-01
5.655737704918032405e-01
5.191256830601093109e-01
5.000000000000000000e-01
4.863387978142076351e-01
4.918032786885245811e-01
4.945355191256830540e-01
5.000000000000000000e-01
5.054644808743169460e-01
5.109289617486338919e-01
5.163934426229508379e-01
5.163934426229508379e-01
5.136612021857923649e-01
5.081967213114754189e-01
5.054644808743169460e-01
5.081967213114754189e-01
5.109289617486338919e-01
5.109289617486338919e-01
5.109289617486338919e-01
5.163934426229508379e-01
5.191256830601093109e-01
5.245901639344262568e-01
5.273224043715847298e-01
5.273224043715847298e-01
5.273224043715847298e-01
5.273224043715847298e-01
5.245901639344262568e-01
5.218579234972677838e-01
5.245901639344262568e-01
5.327868852459016757e-01
5.409836065573770947e-01
5.437158469945355677e-01
5.464480874316940406e-01
5.437158469945355677e-01
5.491803278688525136e-01
5.546448087431693486e-01
5.546448087431693486e-01
5.628415300546447675e-01
5.655737704918032405e-01
5.655737704918032405e-01
5.683060109289617134e-01
5.792349726775956054e-01
5.846994535519125513e-01
5.928961748633879703e-01
6.010928961748633892e-01
6.038251366120218622e-01
6.038251366120218622e-01
5.983606557377049162e-01
6.092896174863388081e-01
6.147540983606557541e-01
6.202185792349727000e-01
6.174863387978142271e-01
6.120218579234972811e-01
6.092896174863388081e-01
6.092896174863388081e-01
5.956284153005464432e-01
5.819672131147540783e-01
5.737704918032786594e-01
5.683060109289617134e-01
5.628415300546447675e-01
5.519125683060108756e-01
5.464480874316940406e-01
5.409836065573770947e-01
5.355191256830601487e-01
5.300546448087432028e-01
5.273224043715847298e-01
5.245901639344262568e-01
5.245901639344262568e-01
5.245901639344262568e-01
5.245901639344262568e-01
5.245901639344262568e-01
5.218579234972677838e-01
5.218579234972677838e-01
5.218579234972677838e-01
5.191256830601093109e-01
5.218579234972677838e-01
5.218579234972677838e-01
5.109289617486338919e-01
5.081967213114754189e-01
5.000000000000000000e-01
5.027322404371584730e-01
5.054644808743169460e-01
5.109289617486338919e-01
5.136612021857923649e-01
5.191256830601093109e-01
5.218579234972677838e-01
5.245901639344262568e-01
5.245901639344262568e-01
5.245901639344262568e-01
5.245901639344262568e-01
5.218579234972677838e-01
5.218579234972677838e-01
5.245901639344262568e-01
5.245901639344262568e-01
5.245901639344262568e-01
5.245901639344262568e-01
5.245901639344262568e-01
5.218579234972677838e-01
5.191256830601093109e-01
5.163934426229508379e-01
5.163934426229508379e-01
5.218579234972677838e-01
5.218579234972677838e-01
5.218579234972677838e-01
5.218579234972677838e-01
5.245901639344262568e-01
5.218579234972677838e-01
5.218579234972677838e-01
5.245901639344262568e-01
5.245901639344262568e-01
5.245901639344262568e-01
5.218579234972677838e-01
5.218579234972677838e-01
5.218579234972677838e-01
5.273224043715847298e-01
5.273224043715847298e-01
5.273224043715847298e-01
5.273224043715847298e-01
5.218579234972677838e-01
5.218579234972677838e-01
5.163934426229508379e-01
5.163934426229508379e-01
5.081967213114754189e-01
5.054644808743169460e-01
5.027322404371584730e-01
5.027322404371584730e-01
5.054644808743169460e-01
5.054644808743169460e-01
5.054644808743169460e-01
5.027322404371584730e-01
5.027322404371584730e-01
5.000000000000000000e-01
4.972677595628415270e-01
4.918032786885245811e-01
4.890710382513661081e-01
4.863387978142076351e-01
4.836065573770491621e-01
4.863387978142076351e-01
4.863387978142076351e-01
4.863387978142076351e-01
4.890710382513661081e-01
4.890710382513661081e-01
4.890710382513661081e-01
4.890710382513661081e-01
4.836065573770491621e-01
4.836065573770491621e-01
4.836065573770491621e-01
4.836065573770491621e-01
4.836065573770491621e-01
4.836065573770491621e-01
4.836065573770491621e-01
4.836065573770491621e-01
4.836065573770491621e-01
4.863387978142076351e-01
5.000000000000000000e-01
5.081967213114754189e-01
5.081967213114754189e-01
5.054644808743169460e-01
5.027322404371584730e-01
5.027322404371584730e-01
4.972677595628415270e-01
4.918032786885245811e-01
4.836065573770491621e-01
4.836065573770491621e-01
4.836065573770491621e-01
4.836065573770491621e-01
4.808743169398906891e-01
4.754098360655737432e-01
4.699453551912568527e-01
4.699453551912568527e-01
4.672131147540983798e-01
4.672131147540983798e-01
4.617486338797814338e-01
4.590163934426229608e-01
4.562841530054644879e-01
4.562841530054644879e-01
4.590163934426229608e-01
4.590163934426229608e-01
4.617486338797814338e-01
4.644808743169399068e-01
4.672131147540983798e-01
4.672131147540983798e-01
4.672131147540983798e-01
4.672131147540983798e-01
4.644808743169399068e-01
4.808743169398906891e-01
5.136612021857923649e-01
5.519125683060108756e-01
5.983606557377049162e-01
6.393442622950820109e-01
6.448087431693989569e-01
6.120218579234972811e-01
5.519125683060108756e-01
5.136612021857923649e-01
4.808743169398906891e-01
4.562841530054644879e-01
4.535519125683060149e-01
4.535519125683060149e-01
4.562841530054644879e-01
4.672131147540983798e-01
4.754098360655737432e-01
4.781420765027322162e-01
4.781420765027322162e-01
4.808743169398906891e-01
4.808743169398906891e-01
4.808743169398906891e-01
4.836065573770491621e-01
4.945355191256830540e-01
4.863387978142076351e-01
4.836065573770491621e-01
4.726775956284153257e-01
4.781420765027322162e-01
4.808743169398906891e-01
4.836065573770491621e-01
4.863387978142076351e-01
4.890710382513661081e-01
4.890710382513661081e-01
4.918032786885245811e-01
4.918032786885245811e-01
4.890710382513661081e-01
4.890710382513661081e-01
4.863387978142076351e-01
4.890710382513661081e-01
4.918032786885245811e-01
4.945355191256830540e-01
5.000000000000000000e-01
5.027322404371584730e-01
5.109289617486338919e-01
5.136612021857923649e-01
5.081967213114754189e-01
5.109289617486338919e-01
5.163934426229508379e-01
5.300546448087432028e-01
5.355191256830601487e-01
5.437158469945355677e-01
5.491803278688525136e-01
5.519125683060108756e-01
5.519125683060108756e-01
5.628415300546447675e-01
5.655737704918032405e-01
5.737704918032786594e-01
5.737704918032786594e-01
5.737704918032786594e-01
5.737704918032786594e-01
5.737704918032786594e-01
5.683060109289617134e-01
5.683060109289617134e-01
5.628415300546447675e-01
5.218579234972677838e-01
5.218579234972677838e-01
5.218579234972677838e-01
5.218579234972677838e-01
5.273224043715847298e-01
5.300546448087432028e-01
7.103825136612021973e-01
7.185792349726776163e-01
7.322404371584699811e-01
7.459016393442623460e-01
7.595628415300545999e-01
7.704918032786884918e-01
7.868852459016393297e-01
7.950819672131147486e-01
8.032786885245901676e-01
7.978142076502732216e-01
7.896174863387978027e-01
7.732240437158469648e-01
7.568306010928961269e-01
7.404371584699454001e-01
7.267759562841530352e-01
7.131147540983606703e-01
7.103825136612021973e-01
6.229508196721311730e-01
5.382513661202186217e-01
5.382513661202186217e-01
5.382513661202186217e-01
7.131147540983606703e-01
7.131147540983606703e-01
7.076502732240437243e-01
7.103825136612021973e-01
7.076502732240437243e-01
7.513661202185791810e-01
7.540983606557376540e-01
7.513661202185791810e-01
7.404371584699454001e-01
5.437158469945355677e-01
6.748633879781420486e-01
8.060109289617486406e-01
8.060109289617486406e-01
6.775956284153005216e-01
5.409836065573770947e-01
5.409836065573770947e-01
5.423497267759562757e-01
5.437158469945355677e-01
5.437158469945355677e-01
5.437158469945355677e-01
5.464480874316940406e-01
5.464480874316940406e-01
5.464480874316940406e-01
5.464480874316940406e-01
5.464480874316940406e-01
5.464480874316940406e-01
5.464480874316940406e-01
5.464480874316940406e-01
5.464480874316940406e-01
5.464480874316940406e-01
5.464480874316940406e-01
5.464480874316940406e-01
5.519125683060108756e-01
5.546448087431693486e-01
5.546448087431693486e-01
5.546448087431693486e-01
5.546448087431693486e-01
5.546448087431693486e-01
5.546448087431693486e-01
5.519125683060108756e-01
5.546448087431693486e-01
5.546448087431693486e-01
5.546448087431693486e-01
5.546448087431693486e-01
5.519125683060108756e-01
5.519125683060108756e-01
5.519125683060108756e-01
5.491803278688525136e-01
5.491803278688525136e-01
5.491803278688525136e-01
5.491803278688525136e-01
5.464480874316940406e-01
5.464480874316940406e-01
5.464480874316940406e-01
5.464480874316940406e-01
5.491803278688525136e-01
5.519125683060108756e-01
5.519125683060108756e-01
5.546448087431693486e-01
5.546448087431693486e-01
5.546448087431693486e-01
5.546448087431693486e-01
5.546448087431693486e-01
5.519125683060108756e-01
5.546448087431693486e-01
5.546448087431693486e-01
5.519125683060108756e-01
5.519125683060108756e-01
5.519125683060108756e-01
5.491803278688525136e-01
5.491803278688525136e-01
5.464480874316940406e-01
5.437158469945355677e-01
5.437158469945355677e-01
5.409836065573770947e-01
5.409836065573770947e-01
5.409836065573770947e-01
5.409836065573770947e-01
5.409836065573770947e-01
5.409836065573770947e-01
5.409836065573770947e-01
5.409836065573770947e-01
5.409836065573770947e-01
5.409836065573770947e-01
5.437158469945355677e-01
5.491803278688525136e-01
5.519125683060108756e-01
5.519125683060108756e-01
5.546448087431693486e-01
5.546448087431693486e-01
5.546448087431693486e-01
5.546448087431693486e-01
5.573770491803278215e-01
5.573770491803278215e-01
5.573770491803278215e-01
5.573770491803278215e-01
5.573770491803278215e-01
5.573770491803278215e-01
5.546448087431693486e-01
5.546448087431693486e-01
5.546448087431693486e-01
5.519125683060108756e-01
5.491803278688525136e-01
5.491803278688525136e-01
5.491803278688525136e-01
5.464480874316940406e-01
5.382513661202186217e-01
5.027322404371584730e-01
4.808743169398906891e-01
4.480874316939890689e-01
4.098360655737705027e-01
3.715846994535519365e-01
3.469945355191256797e-01
4.289617486338797581e-01
5.300546448087432028e-01
6.939890710382513594e-01
8.278688524590164244e-01
9.672131147540983243e-01
1.000000000000000000e+00
9.316939890710382866e-01
8.579234972677595161e-01
7.677595628415300189e-01
6.967213114754098324e-01
6.420765027322404839e-01
6.038251366120218622e-01
5.846994535519125513e-01
5.655737704918032405e-01
5.546448087431693486e-01
5.491803278688525136e-01
5.437158469945355677e-01
5.382513661202186217e-01
5.382513661202186217e-01
5.355191256830601487e-01
5.327868852459016757e-01
5.300546448087432028e-01
5.273224043715847298e-01
5.273224043715847298e-01
5.245901639344262568e-01
5.245901639344262568e-01
5.218579234972677838e-01
5.218579234972677838e-01
5.191256830601093109e-01
5.163934426229508379e-01
5.163934426229508379e-01
5.136612021857923649e-01
5.109289617486338919e-01
5.109289617486338919e-01
5.081967213114754189e-01
5.054644808743169460e-01
5.000000000000000000e-01
4.972677595628415270e-01
4.945355191256830540e-01
4.918032786885245811e-01
4.918032786885245811e-01
4.918032786885245811e-01
4.918032786885245811e-01
4.945355191256830540e-01
4.945355191256830540e-01
4.945355191256830540e-01
4.945355191256830540e-01
4.945355191256830540e-01
4.945355191256830540e-01
4.972677595628415270e-01
5.000000000000000000e-01
5.000000000000000000e-01
5.027322404371584730e-01
5.054644808743169460e-01
5.054644808743169460e-01
5.081967213114754189e-01
5.081967213114754189e-01
5.109289617486338919e-01
5.109289617486338919e-01
5.081967213114754189e-01
5.027322404371584730e-01
5.000000000000000000e-01
5.000000000000000000e-01
5.027322404371584730e-01
5.027322404371584730e-01
5.027322404371584730e-01
5.027322404371584730e-01
5.054644808743169460e-01
5.054644808743169460e-01
5.054644808743169460e-01
5.054644808743169460e-01
5.081967213114754189e-01
5.081967213114754189e-01
5.109289617486338919e-01
5.109289617486338919e-01
5.109289617486338919e-01
5.109289617486338919e-01
5.136612021857923649e-01
5.136612021857923649e-01
5.136612021857923649e-01
5.136612021857923649e-01
5.136612021857923649e-01
5.136612021857923649e-01
5.109289617486338919e-01
5.109289617486338919e-01
5.109289617486338919e-01
5.081967213114754189e-01
5.054644808743169460e-01
5.027322404371584730e-01
5.027322404371584730e-01
5.027322404371584730e-01
5.027322404371584730e-01
5.054644808743169460e-01
5.054644808743169460e-01
5.054644808743169460e-01
5.081967213114754189e-01
5.081967213114754189e-01
5.081967213114754189e-01
5.109289617486338919e-01
5.109289617486338919e-01
5.109289617486338919e-01
5.109289617486338919e-01
5.109289617486338919e-01
5.136612021857923649e-01
5.136612021857923649e-01
5.136612021857923649e-01
5.136612021857923649e-01
5.136612021857923649e-01
5.136612021857923649e-01
5.136612021857923649e-01
5.136612021857923649e-01
5.136612021857923649e-01
5.136612021857923649e-01
5.136612021857923649e-01
5.136612021857923649e-01
5.136612021857923649e-01
5.136612021857923649e-01
5.136612021857923649e-01
5.136612021857923649e-01
5.163934426229508379e-01
5.163934426229508379e-01
5.163934426229508379e-01
5.163934426229508379e-01
5.163934426229508379e-01
5.191256830601093109e-01
5.191256830601093109e-01
5.191256830601093109e-01
5.218579234972677838e-01
5.218579234972677838e-01
5.218579234972677838e-01
5.191256830601093109e-01
5.191256830601093109e-01
5.191256830601093109e-01
5.163934426229508379e-01
5.163934426229508379e-01
5.163934426229508379e-01
5.163934426229508379e-01
5.136612021857923649e-01
5.136612021857923649e-01
5.136612021857923649e-01
5.136612021857923649e-01
5.136612021857923649e-01
5.136612021857923649e-01
5.136612021857923649e-01
5.136612021857923649e-01
5.136612021857923649e-01
5.109289617486338919e-01
5.109289617486338919e-01
5.109289617486338919e-01
5.109289617486338919e-01
5.109289617486338919e-01
5.109289617486338919e-01
5.109289617486338919e-01
5.109289617486338919e-01
5.109289617486338919e-01
5.109289617486338919e-01
5.109289617486338919e-01
5.109289617486338919e-01
5.109289617486338919e-01
5.109289617486338919e-01
5.109289617486338919e-01
5.109289617486338919e-01
5.081967213114754189e-01
5.000000000000000000e-01
5.000000000000000000e-01
5.000000000000000000e-01
4.945355191256830540e-01
4.945355191256830540e-01
4.972677595628415270e-01
5.000000000000000000e-01
5.000000000000000000e-01
5.054644808743169460e-01
5.054644808743169460e-01
5.109289617486338919e-01
5.136612021857923649e-01
5.163934426229508379e-01
5.191256830601093109e-01
5.218579234972677838e-01
5.245901639344262568e-01
5.300546448087432028e-01
5.300546448087432028e-01
5.273224043715847298e-01
5.273224043715847298e-01
5.273224043715847298e-01
5.245901639344262568e-01
5.245901639344262568e-01
5.218579234972677838e-01
5.218579234972677838e-01
5.218579234972677838e-01
5.191256830601093109e-01
5.191256830601093109e-01
5.163934426229508379e-01
5.109289617486338919e-01
5.109289617486338919e-01
4.972677595628415270e-01
4.726775956284153257e-01
4.508196721311475419e-01
4.098360655737705027e-01
3.797814207650273000e-01
3.387978142076502608e-01
3.251366120218578959e-01
4.180327868852459217e-01
5.191256830601093109e-01
6.584699453551912107e-01
8.087431693989071135e-01
9.316939890710382866e-01
9.535519125683059594e-01
8.825136612021857729e-01
7.978142076502732216e-01
7.267759562841530352e-01
6.612021857923496837e-01
6.092896174863388081e-01
5.792349726775956054e-01
5.464480874316940406e-01
5.355191256830601487e-01
5.300546448087432028e-01
5.218579234972677838e-01
5.191256830601093109e-01
5.191256830601093109e-01
5.109289617486338919e-01
5.081967213114754189e-01
5.054644808743169460e-01
5.000000000000000000e-01
4.972677595628415270e-01
4.945355191256830540e-01
4.945355191256830540e-01
4.945355191256830540e-01
4.918032786885245811e-01
4.945355191256830540e-01
4.945355191256830540e-01
5.000000000000000000e-01
5.000000000000000000e-01
5.054644808743169460e-01
5.054644808743169460e-01
5.027322404371584730e-01
5.027322404371584730e-01
5.027322404371584730e-01
5.027322404371584730e-01
5.027322404371584730e-01
5.027322404371584730e-01
5.027322404371584730e-01
5.054644808743169460e-01
5.054644808743169460e-01
5.000000000000000000e-01
4.918032786885245811e-01
4.890710382513661081e-01
4.890710382513661081e-01
4.945355191256830540e-01
5.000000000000000000e-01
5.000000000000000000e-01
5.054644808743169460e-01
5.054644808743169460e-01
5.081967213114754189e-01
5.109289617486338919e-01
5.109289617486338919e-01
5.109289617486338919e-01
5.136612021857923649e-01
5.191256830601093109e-01
5.191256830601093109e-01
5.191256830601093109e-01
5.191256830601093109e-01
5.163934426229508379e-01
5.163934426229508379e-01
5.136612021857923649e-01
5.136612021857923649e-01
5.136612021857923649e-01
5.163934426229508379e-01
5.163934426229508379e-01
5.191256830601093109e-01
5.191256830601093109e-01
5.191256830601093109e-01
5.218579234972677838e-01
5.218579234972677838e-01
5.218579234972677838e-01
5.218579234972677838e-01
5.245901639344262568e-01
5.273224043715847298e-01
5.273224043715847298e-01
5.273224043715847298e-01
5.300546448087432028e-01
5.327868852459016757e-01
5.327868852459016757e-01
5.300546448087432028e-01
5.273224043715847298e-01
5.273224043715847298e-01
5.273224043715847298e-01
5.245901639344262568e-01
5.245901639344262568e-01
5.245901639344262568e-01
5.218579234972677838e-01
5.218579234972677838e-01
5.218579234972677838e-01
5.218579234972677838e-01
5.218579234972677838e-01
5.245901639344262568e-01
5.245901639344262568e-01
5.245901639344262568e-01
5.245901639344262568e-01
5.245901639344262568e-01
5.273224043715847298e-01
5.273224043715847298e-01
5.273224043715847298e-01
5.273224043715847298e-01
5.273224043715847298e-01
5.300546448087432028e-01
5.300546448087432028e-01
5.300546448087432028e-01
5.300546448087432028e-01
5.300546448087432028e-01
5.300546448087432028e-01
5.300546448087432028e-01
5.300546448087432028e-01
5.300546448087432028e-01
5.300546448087432028e-01
5.300546448087432028e-01
5.300546448087432028e-01
5.300546448087432028e-01
5.300546448087432028e-01
5.300546448087432028e-01
5.300546448087432028e-01
5.327868852459016757e-01
5.327868852459016757e-01
5.382513661202186217e-01
5.382513661202186217e-01
5.355191256830601487e-01
5.355191256830601487e-01
5.355191256830601487e-01
5.355191256830601487e-01
5.327868852459016757e-01
5.327868852459016757e-01
5.300546448087432028e-01
5.300546448087432028e-01
5.300546448087432028e-01
5.300546448087432028e-01
5.300546448087432028e-01
5.300546448087432028e-01
5.314207650273223837e-01
5.327868852459016757e-01
5.327868852459016757e-01
5.327868852459016757e-01
5.327868852459016757e-01
5.327868852459016757e-01
5.327868852459016757e-01
5.327868852459016757e-01
5.327868852459016757e-01
5.327868852459016757e-01
5.327868852459016757e-01
5.327868852459016757e-01
5.327868852459016757e-01
5.327868852459016757e-01
5.355191256830601487e-01
5.355191256830601487e-01
5.218579234972677838e-01
5.218579234972677838e-01
5.218579234972677838e-01
5.218579234972677838e-01
5.218579234972677838e-01
5.327868852459016757e-01
7.103825136612021973e-01
7.158469945355191433e-01
7.322404371584699811e-01
7.459016393442623460e-01
7.595628415300545999e-01
7.759562841530054378e-01
7.896174863387978027e-01
7.978142076502732216e-01
8.005464480874316946e-01
7.950819672131147486e-01
7.868852459016393297e-01
7.704918032786884918e-01
7.568306010928961269e-01
7.431693989071038731e-01
7.295081967213115082e-01
7.131147540983606703e-01
7.076502732240437243e-01
6.202185792349727000e-01
5.382513661202186217e-01
5.437158469945355677e-01
7.732240437158469648e-01
7.677595628415300189e-01
7.568306010928961269e-01
7.486338797814208190e-01
7.404371584699454001e-01
7.322404371584699811e-01
7.240437158469945622e-01
7.131147540983606703e-01
7.049180327868852514e-01
7.568306010928961269e-01
7.513661202185791810e-01
7.540983606557376540e-01
7.459016393442623460e-01
6.721311475409835756e-01
6.721311475409835756e-01
7.868852459016393297e-01
5.628415300546447675e-01
5.628415300546447675e-01
5.628415300546447675e-01
5.683060109289617134e-01
5.546448087431693486e-01
4.918032786885245811e-01
4.043715846994535568e-01
2.650273224043716014e-01
1.229508196721311453e-01
3.551912568306010709e-02
1.147540983606557402e-01
2.896174863387978027e-01
4.590163934426229608e-01
5.901639344262294973e-01
7.021857923497267784e-01
7.486338797814208190e-01
7.349726775956284541e-01
7.076502732240437243e-01
6.666666666666666297e-01
6.393442622950820109e-01
6.120218579234972811e-01
5.928961748633879703e-01
5.846994535519125513e-01
5.710382513661201864e-01
5.628415300546447675e-01
5.519125683060108756e-01
5.464480874316940406e-01
5.409836065573770947e-01
5.382513661202186217e-01
5.327868852459016757e-01
5.327868852459016757e-01
5.300546448087432028e-01
5.273224043715847298e-01
5.245901639344262568e-01
5.218579234972677838e-01
5.218579234972677838e-01
5.163934426229508379e-01
5.163934426229508379e-01
5.109289617486338919e-01
5.027322404371584730e-01
5.000000000000000000e-01
4.945355191256830540e-01
4.918032786885245811e-01
4.863387978142076351e-01
4.808743169398906891e-01
4.726775956284153257e-01
4.672131147540983798e-01
4.644808743169399068e-01
4.535519125683060149e-01
4.480874316939890689e-01
4.344262295081967040e-01
4.262295081967212851e-01
4.180327868852459217e-01
4.043715846994535568e-01
3.934426229508196649e-01
3.852459016393442459e-01
3.688524590163934636e-01
3.633879781420765176e-01
3.497267759562841527e-01
3.469945355191256797e-01
3.387978142076502608e-01
3.360655737704917878e-01
3.360655737704917878e-01
3.360655737704917878e-01
3.387978142076502608e-01
3.633879781420765176e-01
3.743169398907104095e-01
3.934426229508196649e-01
4.125683060109289757e-01
4.344262295081967040e-01
4.508196721311475419e-01
4.699453551912568527e-01
4.836065573770491621e-01
4.972677595628415270e-01
5.109289617486338919e-01
5.191256830601093109e-01
5.218579234972677838e-01
5.245901639344262568e-01
5.273224043715847298e-01
5.300546448087432028e-01
5.355191256830601487e-01
5.382513661202186217e-01
5.409836065573770947e-01
5.409836065573770947e-01
5.409836065573770947e-01
5.409836065573770947e-01
5.409836065573770947e-01
5.409836065573770947e-01
5.409836065573770947e-01
5.409836065573770947e-01
5.409836065573770947e-01
5.382513661202186217e-01
5.382513661202186217e-01
5.382513661202186217e-01
5.382513661202186217e-01
5.382513661202186217e-01
5.382513661202186217e-01
5.382513661202186217e-01
5.382513661202186217e-01
5.382513661202186217e-01
5.382513661202186217e-01
5.382513661202186217e-01
5.382513661202186217e-01
5.355191256830601487e-01
5.355191256830601487e-01
5.355191256830601487e-01
5.355191256830601487e-01
5.355191256830601487e-01
5.327868852459016757e-01
5.327868852459016757e-01
5.327868852459016757e-01
5.327868852459016757e-01
5.327868852459016757e-01
5.382513661202186217e-01
5.382513661202186217e-01
5.437158469945355677e-01
5.437158469945355677e-01
5.437158469945355677e-01
5.464480874316940406e-01
5.464480874316940406e-01
5.464480874316940406e-01
5.491803278688525136e-01
5.491803278688525136e-01
5.491803278688525136e-01
5.491803278688525136e-01
5.491803278688525136e-01
5.491803278688525136e-01
5.491803278688525136e-01
5.491803278688525136e-01
5.491803278688525136e-01
5.491803278688525136e-01
5.491803278688525136e-01
5.491803278688525136e-01
5.491803278688525136e-01
5.491803278688525136e-01
5.519125683060108756e-01
5.519125683060108756e-01
5.519125683060108756e-01
5.519125683060108756e-01
5.519125683060108756e-01
5.519125683060108756e-01
5.519125683060108756e-01
5.519125683060108756e-01
5.519125683060108756e-01
5.519125683060108756e-01
5.519125683060108756e-01
5.519125683060108756e-01
5.519125683060108756e-01
5.546448087431693486e-01
5.546448087431693486e-01
5.546448087431693486e-01
5.546448087431693486e-01
5.546448087431693486e-01
5.546448087431693486e-01
5.519125683060108756e-01
5.546448087431693486e-01
5.546448087431693486e-01
5.546448087431693486e-01
5.546448087431693486e-01
5.573770491803278215e-01
5.573770491803278215e-01
5.573770491803278215e-01
5.573770491803278215e-01
5.546448087431693486e-01
5.546448087431693486e-01
5.546448087431693486e-01
5.546448087431693486e-01
5.519125683060108756e-01
5.519125683060108756e-01
5.491803278688525136e-01
5.491803278688525136e-01
5.491803278688525136e-01
5.464480874316940406e-01
5.464480874316940406e-01
5.464480874316940406e-01
5.464480874316940406e-01
5.464480874316940406e-01
5.464480874316940406e-01
5.464480874316940406e-01
5.464480874316940406e-01
5.464480874316940406e-01
5.464480874316940406e-01
5.464480874316940406e-01
5.491803278688525136e-01
5.491803278688525136e-01
5.546448087431693486e-01
5.546448087431693486e-01
5.573770491803278215e-01
5.573770491803278215e-01
5.655737704918032405e-01
5.655737704918032405e-01
5.655737704918032405e-01
5.655737704918032405e-01
5.655737704918032405e-01
5.628415300546447675e-01
5.610200364298726372e-01
5.591985428051000628e-01
5.573770491803278215e-01
5.573770491803278215e-01
5.573770491803278215e-01
5.573770491803278215e-01
5.628415300546447675e-01
5.437158469945355677e-01
4.726775956284153257e-01
3.825136612021857729e-01
2.404371584699453446e-01
1.038251366120218622e-01
3.278688524590164105e-02
1.530054644808743203e-01
3.551912568306010987e-01
5.000000000000000000e-01
6.420765027322404839e-01
7.513661202185791810e-01
7.650273224043715459e-01
7.404371584699454001e-01
7.049180327868852514e-01
6.693989071038251026e-01
6.284153005464481190e-01
6.120218579234972811e-01
5.928961748633879703e-01
5.819672131147540783e-01
5.792349726775956054e-01
5.655737704918032405e-01
5.546448087431693486e-01
5.519125683060108756e-01
5.491803278688525136e-01
5.437158469945355677e-01
5.382513661202186217e-01
5.327868852459016757e-01
5.273224043715847298e-01
5.245901639344262568e-01
5.218579234972677838e-01
5.218579234972677838e-01
5.191256830601093109e-01
5.163934426229508379e-01
5.163934426229508379e-01
5.109289617486338919e-01
5.081967213114754189e-01
5.081967213114754189e-01
5.000000000000000000e-01
5.000000000000000000e-01
4.890710382513661081e-01
4.836065573770491621e-01
4.781420765027322162e-01
4.726775956284153257e-01
4.617486338797814338e-01
4.535519125683060149e-01
4.426229508196721230e-01
4.316939890710382310e-01
4.207650273224043946e-01
4.125683060109289757e-01
4.016393442622950838e-01
3.879781420765027189e-01
3.770491803278688270e-01
3.661202185792349906e-01
3.524590163934426257e-01
3.442622950819672067e-01
3.333333333333333148e-01
3.306010928961748419e-01
3.306010928961748419e-01
3.333333333333333148e-01
3.360655737704917878e-01
3.360655737704917878e-01
3.551912568306010987e-01
3.688524590163934636e-01
3.852459016393442459e-01
4.043715846994535568e-01
4.262295081967212851e-01
4.453551912568305959e-01
4.644808743169399068e-01
4.836065573770491621e-01
4.945355191256830540e-01
5.054644808743169460e-01
5.136612021857923649e-01
5.218579234972677838e-01
5.273224043715847298e-01
5.300546448087432028e-01
5.327868852459016757e-01
5.327868852459016757e-01
5.355191256830601487e-01
5.355191256830601487e-01
5.355191256830601487e-01
5.355191256830601487e-01
5.355191256830601487e-01
5.355191256830601487e-01
5.355191256830601487e-01
5.355191256830601487e-01
5.355191256830601487e-01
5.355191256830601487e-01
5.355191256830601487e-01
5.355191256830601487e-01
5.355191256830601487e-01
5.327868852459016757e-01
5.327868852459016757e-01
5.327868852459016757e-01
5.327868852459016757e-01
5.314207650273223837e-01
5.300546448087432028e-01
5.300546448087432028e-01
5.300546448087432028e-01
5.273224043715847298e-01
5.273224043715847298e-01
5.273224043715847298e-01
5.245901639344262568e-01
5.245901639344262568e-01
5.218579234972677838e-01
5.218579234972677838e-01
5.218579234972677838e-01
5.218579234972677838e-01
5.191256830601093109e-01
5.191256830601093109e-01
5.163934426229508379e-01
5.163934426229508379e-01
5.163934426229508379e-01
5.163934426229508379e-01
5.136612021857923649e-01
5.136612021857923649e-01
5.136612021857923649e-01
5.136612021857923649e-01
5.136612021857923649e-01
5.136612021857923649e-01
5.136612021857923649e-01
5.136612021857923649e-01
5.136612021857923649e-01
5.163934426229508379e-01
5.163934426229508379e-01
5.163934426229508379e-01
5.163934426229508379e-01
5.191256830601093109e-01
5.191256830601093109e-01
5.218579234972677838e-01
5.218579234972677838e-01
5.218579234972677838e-01
5.191256830601093109e-01
5.163934426229508379e-01
5.136612021857923649e-01
5.122950819672130729e-01
5.109289617486338919e-01
5.109289617486338919e-01
5.136612021857923649e-01
5.136612021857923649e-01
5.136612021857923649e-01
5.163934426229508379e-01
5.163934426229508379e-01
5.163934426229508379e-01
5.163934426229508379e-01
5.191256830601093109e-01
5.191256830601093109e-01
5.163934426229508379e-01
5.163934426229508379e-01
5.163934426229508379e-01
5.163934426229508379e-01
5.163934426229508379e-01
5.163934426229508379e-01
5.163934426229508379e-01
5.163934426229508379e-01
5.163934426229508379e-01
5.163934426229508379e-01
5.163934426229508379e-01
5.163934426229508379e-01
5.136612021857923649e-01
5.136612021857923649e-01
5.109289617486338919e-01
5.109289617486338919e-01
5.081967213114754189e-01
5.054644808743169460e-01
5.054644808743169460e-01
5.054644808743169460e-01
5.000000000000000000e-01
4.972677595628415270e-01
5.000000000000000000e-01
5.000000000000000000e-01
5.000000000000000000e-01
5.027322404371584730e-01
5.027322404371584730e-01
5.040983606557376540e-01
5.054644808743169460e-01
5.054644808743169460e-01
5.054644808743169460e-01
5.081967213114754189e-01
5.081967213114754189e-01
5.109289617486338919e-01
5.109289617486338919e-01
5.109289617486338919e-01
5.109289617486338919e-01
5.109289617486338919e-01
5.109289617486338919e-01
5.109289617486338919e-01
5.109289617486338919e-01
5.109289617486338919e-01
5.109289617486338919e-01
5.109289617486338919e-01
5.109289617486338919e-01
5.081967213114754189e-01
5.081967213114754189e-01
5.109289617486338919e-01
4.535519125683060149e-01
3.661202185792349906e-01
2.513661202185792365e-01
1.010928961748633892e-01
0.000000000000000000e+00
6.284153005464480912e-02
2.322404371584699534e-01
3.989071038251366108e-01
5.273224043715847298e-01
6.448087431693989569e-01
6.939890710382513594e-01
6.912568306010928865e-01
6.584699453551912107e-01
6.284153005464481190e-01
