3.630470016207455464e-01
3.630470016207455464e-01
3.666884169315287600e-01
3.703298322423120292e-01
3.739712475530951874e-01
3.776126628638784011e-01
3.812540781746616148e-01
3.848954934854448839e-01
3.885369087962280976e-01
3.921783241070112558e-01
3.958197394177945250e-01
3.994611547285777386e-01
4.031025700393609523e-01
4.067439853501442215e-01
4.103854006609273797e-01
4.140268159717105934e-01
4.176682312824938625e-01
4.213096465932770762e-01
4.249510619040602899e-01
4.285924772148434481e-01
4.322338925256267173e-01
4.358753078364099309e-01
4.395167231471931446e-01
4.431581384579764138e-01
4.467995537687595720e-01
4.504409690795427856e-01
4.540823843903260548e-01
4.577237997011092685e-01
4.613652150118924822e-01
4.650066303226756403e-01
4.686480456334589095e-01
4.722894609442421232e-01
4.759308762550253924e-01
4.795722915658086061e-01
4.832137068765917642e-01
4.868551221873749779e-01
4.904965374981582471e-01
4.941379528089414608e-01
4.977793681197247300e-01
5.014207834305078881e-01
5.050621987412912128e-01
5.087036140520743155e-01
5.123450293628575292e-01
5.159864446736408539e-01
5.196278599844239565e-01
5.232692752952072812e-01
5.269106906059903839e-01
5.305521059167735975e-01
5.341935212275569222e-01
5.378349365383400249e-01
5.414763518491233496e-01
5.451177671599065633e-01
5.487591824706898880e-01
5.524005977814729906e-01
5.560420130922560933e-01
5.596834284030394180e-01
5.633248437138226317e-01
5.669662590246057343e-01
5.706076743353890590e-01
5.742490896461722727e-01
5.778905049569555974e-01
5.815319202677387000e-01
5.851733355785220247e-01
5.888147508893052384e-01
5.924561662000883411e-01
5.960975815108716658e-01
5.997389968216547684e-01
6.033804121324379821e-01
6.070218274432213068e-01
6.106632427540044095e-01
6.143046580647877342e-01
6.179460733755709478e-01
6.215874886863542725e-01
6.252289039971373752e-01
6.288703193079204778e-01
6.325117346187039136e-01
6.361531499294870162e-01
6.397945652402701189e-01
6.434359805510534436e-01
5.170178282009724180e-01
5.153970826580226428e-01
5.137763371150729785e-01
3.889789303079416727e-01
3.889789303079416727e-01
3.889789303079416727e-01
3.889789303079416727e-01
3.889789303079416727e-01
3.889789303079416727e-01
3.889789303079416727e-01
3.889789303079416727e-01
3.889789303079416727e-01
3.889789303079416727e-01
3.889789303079416727e-01
3.889789303079416727e-01
3.889789303079416727e-01
3.889789303079416727e-01
3.889789303079416727e-01
3.889789303079416727e-01
3.889789303079416727e-01
3.889789303079416727e-01
3.889789303079416727e-01
3.889789303079416727e-01
3.889789303079416727e-01
3.889789303079416727e-01
3.889789303079416727e-01
3.889789303079416727e-01
3.889789303079416727e-01
3.889789303079416727e-01
3.889789303079416727e-01
3.889789303079416727e-01
3.889789303079416727e-01
3.889789303079416727e-01
3.889789303079416727e-01
3.889789303079416727e-01
3.889789303079416727e-01
3.889789303079416727e-01
3.889789303079416727e-01
3.889789303079416727e-01
5.137763371150729785e-01
5.153970826580226428e-01
5.218800648298217437e-01
6.369529983792544536e-01
7.828200972447325601e-01
7.828200972447325601e-01
7.811993517017827848e-01
6.596434359805510850e-01
6.580226904376013097e-01
6.580226904376013097e-01
6.580226904376013097e-01
6.580226904376013097e-01
6.596434359805510850e-01
6.596434359805510850e-01
6.596434359805510850e-01
6.596434359805510850e-01
6.580226904376013097e-01
6.580226904376013097e-01
6.580226904376013097e-01
6.580226904376013097e-01
6.564019448946515345e-01
6.564019448946515345e-01
6.547811993517017592e-01
6.547811993517017592e-01
6.547811993517017592e-01
6.547811993517017592e-01
6.515397082658023198e-01
6.515397082658023198e-01
6.499189627228525445e-01
6.482982171799027693e-01
6.482982171799027693e-01
6.482982171799027693e-01
6.450567260940032188e-01
6.450567260940032188e-01
6.418152350081037794e-01
6.418152350081037794e-01
6.401944894651540041e-01
6.385737439222042289e-01
6.369529983792544536e-01
6.401944894651540041e-01
6.450567260940032188e-01
6.515397082658023198e-01
6.596434359805510850e-01
6.628849270664505244e-01
6.661264181523500749e-01
6.693679092382496254e-01
6.709886547811994006e-01
6.709886547811994006e-01
6.726094003241490649e-01
6.709886547811994006e-01
6.726094003241490649e-01
6.693679092382496254e-01
6.628849270664505244e-01
6.580226904376013097e-01
6.515397082658023198e-01
6.369529983792544536e-01
6.142625607779578223e-01
5.867098865478119762e-01
5.559157212317665797e-01
5.478119935170178145e-01
5.899513776337115267e-01
6.304700162074554637e-01
6.952998379254456962e-01
7.341977309562398579e-01
7.714748784440842444e-01
7.763371150729335701e-01
7.487844408427877241e-01
7.212317666126417670e-01
7.017828200972446862e-01
6.790923824959481658e-01
6.709886547811994006e-01
6.758508914100486153e-01
6.726094003241490649e-01
6.677471636952998502e-01
6.628849270664505244e-01
6.645056726094002997e-01
6.693679092382496254e-01
6.726094003241490649e-01
6.693679092382496254e-01
6.645056726094002997e-01
6.612641815235008602e-01
6.596434359805510850e-01
6.596434359805510850e-01
6.612641815235008602e-01
6.580226904376013097e-01
6.564019448946515345e-01
6.531604538087519840e-01
6.515397082658023198e-01
6.531604538087519840e-01
6.499189627228525445e-01
6.466774716369529941e-01
6.418152350081037794e-01
6.369529983792544536e-01
6.304700162074554637e-01
6.304700162074554637e-01
6.256077795786061380e-01
6.191247974068071480e-01
6.142625607779578223e-01
6.110210696920583828e-01
6.029173419773096176e-01
5.948136142625607414e-01
5.867098865478119762e-01
5.834683954619124258e-01
5.786061588330632111e-01
5.769854132901134358e-01
5.786061588330632111e-01
5.834683954619124258e-01
5.850891410048622010e-01
5.899513776337115267e-01
5.980551053484602919e-01
6.029173419773096176e-01
6.126418152350081581e-01
6.191247974068071480e-01
6.304700162074554637e-01
6.337115072933549031e-01
6.450567260940032188e-01
6.499189627228525445e-01
6.515397082658023198e-01
6.515397082658023198e-01
6.531604538087519840e-01
6.547811993517017592e-01
6.580226904376013097e-01
6.628849270664505244e-01
6.580226904376013097e-01
6.580226904376013097e-01
6.612641815235008602e-01
6.661264181523500749e-01
6.693679092382496254e-01
6.661264181523500749e-01
6.661264181523500749e-01
6.661264181523500749e-01
6.685575364667747378e-01
6.709886547811994006e-01
6.709886547811994006e-01
6.709886547811994006e-01
6.693679092382496254e-01
6.709886547811994006e-01
6.726094003241490649e-01
6.758508914100486153e-01
6.758508914100486153e-01
6.709886547811994006e-01
6.693679092382496254e-01
6.628849270664505244e-01
6.596434359805510850e-01
6.580226904376013097e-01
6.596434359805510850e-01
6.612641815235008602e-01
6.645056726094002997e-01
6.645056726094002997e-01
6.677471636952998502e-01
6.709886547811994006e-01
6.742301458670988401e-01
6.758508914100486153e-01
6.758508914100486153e-01
6.709886547811994006e-01
6.709886547811994006e-01
6.661264181523500749e-01
6.661264181523500749e-01
6.645056726094002997e-01
6.628849270664505244e-01
6.628849270664505244e-01
6.645056726094002997e-01
6.645056726094002997e-01
6.645056726094002997e-01
6.645056726094002997e-01
6.677471636952998502e-01
6.726094003241490649e-01
6.726094003241490649e-01
6.693679092382496254e-01
6.645056726094002997e-01
6.661264181523500749e-01
6.661264181523500749e-01
6.645056726094002997e-01
6.645056726094002997e-01
6.645056726094002997e-01
6.628849270664505244e-01
6.612641815235008602e-01
6.612641815235008602e-01
6.596434359805510850e-01
6.564019448946515345e-01
6.547811993517017592e-01
6.499189627228525445e-01
6.482982171799027693e-01
6.466774716369529941e-01
6.450567260940032188e-01
6.434359805510534436e-01
6.418152350081037794e-01
6.418152350081037794e-01
6.418152350081037794e-01
6.418152350081037794e-01
6.418152350081037794e-01
6.450567260940032188e-01
6.515397082658023198e-01
6.564019448946515345e-01
6.612641815235008602e-01
6.645056726094002997e-01
6.661264181523500749e-01
6.661264181523500749e-01
6.726094003241490649e-01
6.709886547811994006e-01
6.709886547811994006e-01
6.709886547811994006e-01
6.709886547811994006e-01
6.693679092382496254e-01
6.677471636952998502e-01
6.693679092382496254e-01
6.661264181523500749e-01
6.564019448946515345e-01
6.418152350081037794e-01
6.158833063209075975e-01
5.915721231766613020e-01
5.607779578606159054e-01
5.364667747163694989e-01
5.640194489465153449e-01
5.964343598055105167e-01
6.515397082658023198e-01
7.196110210696921028e-01
7.455429497568881736e-01
7.714748784440842444e-01
7.504051863857373883e-01
7.260940032414910927e-01
7.001620745542950219e-01
6.888168557536467063e-01
6.726094003241490649e-01
6.709886547811994006e-01
6.661264181523500749e-01
6.645056726094002997e-01
6.612641815235008602e-01
6.596434359805510850e-01
6.596434359805510850e-01
6.612641815235008602e-01
6.612641815235008602e-01
6.580226904376013097e-01
6.547811993517017592e-01
6.547811993517017592e-01
6.564019448946515345e-01
6.580226904376013097e-01
6.531604538087519840e-01
6.515397082658023198e-01
6.515397082658023198e-01
6.515397082658023198e-01
6.515397082658023198e-01
6.499189627228525445e-01
6.466774716369529941e-01
6.434359805510534436e-01
6.369529983792544536e-01
6.337115072933549031e-01
6.304700162074554637e-01
6.272285251215559132e-01
6.256077795786061380e-01
6.175040518638573728e-01
6.142625607779578223e-01
6.045380875202592819e-01
5.964343598055105167e-01
5.883306320907617515e-01
5.850891410048622010e-01
5.802269043760129863e-01
5.802269043760129863e-01
5.802269043760129863e-01
5.802269043760129863e-01
5.818476499189627615e-01
5.834683954619124258e-01
5.867098865478119762e-01
5.964343598055105167e-01
6.012965964343598424e-01
6.126418152350081581e-01
6.158833063209075975e-01
6.191247974068071480e-01
6.256077795786061380e-01
6.320907617504052389e-01
6.401944894651540041e-01
6.450567260940032188e-01
6.499189627228525445e-01
6.515397082658023198e-01
6.515397082658023198e-01
6.531604538087519840e-01
6.547811993517017592e-01
6.564019448946515345e-01
6.564019448946515345e-01
6.564019448946515345e-01
6.564019448946515345e-01
6.580226904376013097e-01
6.580226904376013097e-01
6.580226904376013097e-01
6.580226904376013097e-01
6.612641815235008602e-01
6.628849270664505244e-01
6.693679092382496254e-01
6.693679092382496254e-01
6.628849270664505244e-01
6.596434359805510850e-01
6.580226904376013097e-01
6.580226904376013097e-01
6.580226904376013097e-01
6.547811993517017592e-01
6.547811993517017592e-01
6.547811993517017592e-01
6.596434359805510850e-01
6.612641815235008602e-01
6.612641815235008602e-01
6.580226904376013097e-01
6.580226904376013097e-01
6.564019448946515345e-01
6.564019448946515345e-01
6.580226904376013097e-01
6.580226904376013097e-01
6.580226904376013097e-01
6.580226904376013097e-01
6.564019448946515345e-01
6.564019448946515345e-01
6.564019448946515345e-01
6.564019448946515345e-01
6.564019448946515345e-01
6.580226904376013097e-01
6.580226904376013097e-01
6.580226904376013097e-01
6.588330632090761974e-01
6.596434359805510850e-01
6.628849270664505244e-01
6.645056726094002997e-01
6.628849270664505244e-01
6.612641815235008602e-01
6.580226904376013097e-01
6.580226904376013097e-01
6.580226904376013097e-01
6.580226904376013097e-01
6.596434359805510850e-01
6.596434359805510850e-01
6.612641815235008602e-01
6.612641815235008602e-01
6.645056726094002997e-01
6.661264181523500749e-01
6.661264181523500749e-01
6.645056726094002997e-01
6.628849270664505244e-01
6.612641815235008602e-01
6.612641815235008602e-01
6.628849270664505244e-01
6.628849270664505244e-01
6.612641815235008602e-01
6.580226904376013097e-01
6.564019448946515345e-01
6.547811993517017592e-01
6.547811993517017592e-01
6.531604538087519840e-01
6.515397082658023198e-01
6.482982171799027693e-01
6.450567260940032188e-01
6.418152350081037794e-01
6.401944894651540041e-01
6.369529983792544536e-01
6.320907617504052389e-01
6.337115072933549031e-01
6.353322528363046784e-01
6.369529983792544536e-01
6.418152350081037794e-01
6.434359805510534436e-01
6.466774716369529941e-01
6.499189627228525445e-01
6.515397082658023198e-01
6.531604538087519840e-01
6.596434359805510850e-01
6.628849270664505244e-01
6.645056726094002997e-01
6.693679092382496254e-01
6.677471636952998502e-01
6.645056726094002997e-01
6.661264181523500749e-01
6.661264181523500749e-01
6.661264181523500749e-01
6.628849270664505244e-01
6.531604538087519840e-01
6.320907617504052389e-01
6.142625607779578223e-01
5.786061588330632111e-01
5.510534846029173650e-01
5.348460291734197236e-01
5.769854132901134358e-01
6.191247974068071480e-01
6.904376012965964815e-01
7.309562398703403074e-01
7.649918962722852545e-01
7.714748784440842444e-01
7.455429497568881736e-01
7.196110210696921028e-01
6.985413290113452467e-01
6.790923824959481658e-01
6.709886547811994006e-01
6.677471636952998502e-01
6.677471636952998502e-01
6.645056726094002997e-01
6.661264181523500749e-01
6.661264181523500749e-01
6.645056726094002997e-01
6.645056726094002997e-01
6.628849270664505244e-01
6.628849270664505244e-01
6.628849270664505244e-01
6.612641815235008602e-01
6.612641815235008602e-01
6.612641815235008602e-01
6.580226904376013097e-01
6.564019448946515345e-01
6.531604538087519840e-01
6.466774716369529941e-01
6.450567260940032188e-01
6.450567260940032188e-01
6.450567260940032188e-01
6.466774716369529941e-01
6.418152350081037794e-01
6.385737439222042289e-01
6.320907617504052389e-01
6.239870340356563627e-01
6.158833063209075975e-01
6.110210696920583828e-01
6.029173419773096176e-01
5.964343598055105167e-01
5.899513776337115267e-01
5.834683954619124258e-01
5.786061588330632111e-01
5.721231766612642211e-01
5.688816855753646706e-01
5.705024311183144459e-01
5.737439222042138853e-01
5.802269043760129863e-01
5.818476499189627615e-01
5.883306320907617515e-01
5.931928687196109662e-01
6.012965964343598424e-01
6.110210696920583828e-01
6.207455429497569233e-01
6.272285251215559132e-01
6.369529983792544536e-01
6.418152350081037794e-01
6.434359805510534436e-01
6.499189627228525445e-01
6.547811993517017592e-01
6.564019448946515345e-01
6.580226904376013097e-01
6.580226904376013097e-01
6.596434359805510850e-01
6.580226904376013097e-01
6.580226904376013097e-01
6.580226904376013097e-01
6.580226904376013097e-01
6.596434359805510850e-01
6.596434359805510850e-01
6.596434359805510850e-01
6.596434359805510850e-01
6.564019448946515345e-01
6.564019448946515345e-01
6.564019448946515345e-01
6.564019448946515345e-01
6.547811993517017592e-01
6.547811993517017592e-01
6.547811993517017592e-01
6.547811993517017592e-01
6.564019448946515345e-01
6.580226904376013097e-01
6.547811993517017592e-01
6.531604538087519840e-01
6.515397082658023198e-01
6.531604538087519840e-01
6.547811993517017592e-01
6.564019448946515345e-01
6.547811993517017592e-01
6.547811993517017592e-01
6.547811993517017592e-01
6.564019448946515345e-01
6.580226904376013097e-01
6.580226904376013097e-01
6.547811993517017592e-01
6.531604538087519840e-01
6.531604538087519840e-01
6.531604538087519840e-01
6.531604538087519840e-01
6.515397082658023198e-01
6.515397082658023198e-01
6.499189627228525445e-01
6.499189627228525445e-01
6.531604538087519840e-01
6.531604538087519840e-01
6.580226904376013097e-01
6.580226904376013097e-01
6.580226904376013097e-01
6.580226904376013097e-01
6.547811993517017592e-01
6.531604538087519840e-01
6.531604538087519840e-01
6.547811993517017592e-01
6.450567260940032188e-01
6.450567260940032188e-01
6.450567260940032188e-01
6.450567260940032188e-01
6.450567260940032188e-01
6.450567260940032188e-01
8.038897893030794162e-01
7.974068071312804262e-01
7.941653160453808757e-01
7.811993517017827848e-01
7.876823338735818858e-01
7.876823338735818858e-01
7.795786061588330096e-01
7.795786061588330096e-01
7.714748784440842444e-01
7.747163695299837949e-01
7.828200972447325601e-01
7.909238249594813253e-01
7.925445705024311005e-01
7.941653160453808757e-01
5.834683954619124258e-01
5.834683954619124258e-01
5.931928687196109662e-01
7.520259319286871635e-01
7.585089141004862645e-01
7.617504051863857040e-01
7.698541329011344692e-01
7.747163695299837949e-01
7.844408427876823353e-01
7.957860615883306510e-01
8.055105348460291914e-01
8.087520259319287419e-01
8.103727714748784061e-01
8.022690437601296409e-01
7.974068071312804262e-01
7.876823338735818858e-01
7.763371150729335701e-01
7.730956239870340196e-01
7.633711507293354792e-01
7.568881685575364893e-01
7.536466774716369388e-01
6.758508914100486153e-01
5.931928687196109662e-01
5.948136142625607414e-01
5.964343598055105167e-01
7.552674230145867140e-01
7.828200972447325601e-01
7.811993517017827848e-01
7.795786061588330096e-01
7.536466774716369388e-01
7.536466774716369388e-01
7.536466774716369388e-01
6.758508914100486153e-01
6.110210696920583828e-01
6.401944894651540041e-01
6.693679092382496254e-01
7.147487844408427771e-01
7.536466774716369388e-01
8.038897893030794162e-01
8.168557536466775071e-01
7.585089141004862645e-01
6.936790923824959210e-01
6.045380875202592819e-01
5.769854132901134358e-01
5.186385737439221932e-01
5.235008103727715190e-01
5.478119935170178145e-01
5.721231766612642211e-01
5.834683954619124258e-01
5.964343598055105167e-01
5.980551053484602919e-01
5.996758508914100672e-01
5.996758508914100672e-01
5.948136142625607414e-01
5.915721231766613020e-01
5.915721231766613020e-01
5.931928687196109662e-01
5.931928687196109662e-01
5.948136142625607414e-01
5.948136142625607414e-01
5.931928687196109662e-01
5.948136142625607414e-01
5.948136142625607414e-01
5.931928687196109662e-01
5.964343598055105167e-01
5.996758508914100672e-01
6.029173419773096176e-01
6.061588330632090571e-01
6.110210696920583828e-01
6.142625607779578223e-01
6.175040518638573728e-01
6.239870340356563627e-01
6.288492706645056884e-01
6.337115072933549031e-01
6.434359805510534436e-01
6.531604538087519840e-01
6.612641815235008602e-01
6.742301458670988401e-01
6.807131280388979411e-01
6.871961102106969310e-01
6.920583468395461457e-01
7.001620745542950219e-01
7.098865478119935624e-01
7.147487844408427771e-01
7.196110210696921028e-01
7.212317666126417670e-01
7.147487844408427771e-01
7.050243111831442366e-01
6.985413290113452467e-01
6.871961102106969310e-01
6.774716369529983906e-01
6.628849270664505244e-01
6.531604538087519840e-01
6.466774716369529941e-01
6.369529983792544536e-01
6.288492706645056884e-01
6.239870340356563627e-01
6.158833063209075975e-01
6.126418152350081581e-01
6.077795786061588323e-01
6.045380875202592819e-01
6.029173419773096176e-01
5.996758508914100672e-01
5.964343598055105167e-01
5.931928687196109662e-01
5.931928687196109662e-01
5.948136142625607414e-01
5.948136142625607414e-01
5.948136142625607414e-01
5.948136142625607414e-01
5.948136142625607414e-01
5.964343598055105167e-01
5.964343598055105167e-01
5.964343598055105167e-01
5.964343598055105167e-01
5.964343598055105167e-01
5.964343598055105167e-01
5.980551053484602919e-01
5.996758508914100672e-01
5.996758508914100672e-01
5.996758508914100672e-01
5.980551053484602919e-01
5.980551053484602919e-01
5.980551053484602919e-01
6.029173419773096176e-01
6.029173419773096176e-01
6.012965964343598424e-01
6.012965964343598424e-01
6.012965964343598424e-01
6.012965964343598424e-01
6.012965964343598424e-01
6.029173419773096176e-01
6.029173419773096176e-01
6.029173419773096176e-01
6.045380875202592819e-01
6.061588330632090571e-01
6.061588330632090571e-01
6.061588330632090571e-01
6.077795786061588323e-01
6.077795786061588323e-01
6.061588330632090571e-01
6.061588330632090571e-01
6.045380875202592819e-01
6.012965964343598424e-01
5.980551053484602919e-01
6.029173419773096176e-01
6.029173419773096176e-01
6.029173419773096176e-01
6.029173419773096176e-01
6.029173419773096176e-01
6.029173419773096176e-01
6.061588330632090571e-01
6.077795786061588323e-01
6.110210696920583828e-01
6.126418152350081581e-01
6.158833063209075975e-01
6.158833063209075975e-01
6.175040518638573728e-01
6.191247974068071480e-01
6.191247974068071480e-01
6.175040518638573728e-01
6.158833063209075975e-01
6.126418152350081581e-01
6.142625607779578223e-01
6.158833063209075975e-01
6.191247974068071480e-01
6.191247974068071480e-01
6.191247974068071480e-01
6.191247974068071480e-01
6.207455429497569233e-01
6.239870340356563627e-01
6.288492706645056884e-01
6.353322528363046784e-01
6.385737439222042289e-01
6.434359805510534436e-01
6.482982171799027693e-01
6.531604538087519840e-01
6.580226904376013097e-01
6.612641815235008602e-01
6.677471636952998502e-01
6.790923824959481658e-01
6.807131280388979411e-01
6.807131280388979411e-01
6.774716369529983906e-01
6.774716369529983906e-01
6.742301458670988401e-01
6.677471636952998502e-01
6.645056726094002997e-01
6.596434359805510850e-01
6.564019448946515345e-01
6.515397082658023198e-01
6.450567260940032188e-01
6.401944894651540041e-01
6.353322528363046784e-01
6.353322528363046784e-01
6.320907617504052389e-01
6.320907617504052389e-01
6.288492706645056884e-01
6.288492706645056884e-01
6.288492706645056884e-01
6.272285251215559132e-01
6.256077795786061380e-01
6.337115072933549031e-01
6.466774716369529941e-01
6.807131280388979411e-01
7.212317666126417670e-01
7.682333873581848049e-01
8.217179902755267218e-01
8.411669367909238026e-01
7.925445705024311005e-01
7.179902755267423275e-01
6.499189627228525445e-01
5.964343598055105167e-01
5.445705024311182640e-01
5.445705024311182640e-01
5.640194489465153449e-01
5.850891410048622010e-01
6.029173419773096176e-01
6.158833063209075975e-01
6.272285251215559132e-01
6.304700162074554637e-01
6.337115072933549031e-01
6.369529983792544536e-01
6.385737439222042289e-01
6.434359805510534436e-01
6.466774716369529941e-01
6.499189627228525445e-01
6.515397082658023198e-01
6.547811993517017592e-01
6.547811993517017592e-01
6.580226904376013097e-01
6.596434359805510850e-01
6.628849270664505244e-01
6.645056726094002997e-01
6.709886547811994006e-01
6.726094003241490649e-01
6.774716369529983906e-01
6.790923824959481658e-01
6.823338735818476053e-01
6.855753646677471558e-01
6.888168557536467063e-01
6.952998379254456962e-01
6.969205834683954714e-01
7.017828200972446862e-01
7.066450567260940119e-01
7.147487844408427771e-01
7.244732576985413175e-01
7.309562398703403074e-01
7.358184764991896332e-01
7.423014586709886231e-01
7.471636952998379488e-01
7.552674230145867140e-01
7.617504051863857040e-01
7.649918962722852545e-01
7.633711507293354792e-01
7.568881685575364893e-01
7.520259319286871635e-01
7.439222042139383984e-01
7.325769854132900827e-01
7.196110210696921028e-01
7.082658022690437871e-01
6.985413290113452467e-01
6.904376012965964815e-01
6.839546191247973805e-01
6.790923824959481658e-01
6.742301458670988401e-01
6.645056726094002997e-01
6.628849270664505244e-01
6.596434359805510850e-01
6.596434359805510850e-01
6.580226904376013097e-01
6.580226904376013097e-01
6.564019448946515345e-01
6.564019448946515345e-01
6.547811993517017592e-01
6.531604538087519840e-01
6.515397082658023198e-01
6.499189627228525445e-01
6.482982171799027693e-01
6.466774716369529941e-01
6.482982171799027693e-01
6.482982171799027693e-01
6.466774716369529941e-01
6.466774716369529941e-01
6.466774716369529941e-01
6.450567260940032188e-01
6.450567260940032188e-01
6.450567260940032188e-01
6.450567260940032188e-01
6.434359805510534436e-01
6.434359805510534436e-01
6.434359805510534436e-01
6.450567260940032188e-01
6.482982171799027693e-01
6.482982171799027693e-01
6.499189627228525445e-01
6.515397082658023198e-01
6.499189627228525445e-01
6.515397082658023198e-01
6.515397082658023198e-01
6.515397082658023198e-01
6.515397082658023198e-01
6.531604538087519840e-01
6.580226904376013097e-01
6.596434359805510850e-01
6.596434359805510850e-01
6.628849270664505244e-01
6.645056726094002997e-01
6.645056726094002997e-01
6.661264181523500749e-01
6.661264181523500749e-01
6.661264181523500749e-01
6.661264181523500749e-01
6.645056726094002997e-01
6.628849270664505244e-01
6.645056726094002997e-01
6.645056726094002997e-01
6.628849270664505244e-01
6.628849270664505244e-01
6.628849270664505244e-01
6.628849270664505244e-01
6.628849270664505244e-01
6.628849270664505244e-01
6.628849270664505244e-01
6.645056726094002997e-01
6.645056726094002997e-01
6.661264181523500749e-01
6.693679092382496254e-01
6.709886547811994006e-01
6.693679092382496254e-01
6.661264181523500749e-01
6.661264181523500749e-01
6.661264181523500749e-01
6.709886547811994006e-01
6.774716369529983906e-01
6.790923824959481658e-01
6.790923824959481658e-01
6.790923824959481658e-01
6.823338735818476053e-01
6.904376012965964815e-01
6.936790923824959210e-01
7.017828200972446862e-01
7.034035656401944614e-01
7.001620745542950219e-01
6.985413290113452467e-01
6.985413290113452467e-01
6.985413290113452467e-01
6.969205834683954714e-01
6.952998379254456962e-01
6.920583468395461457e-01
6.888168557536467063e-01
6.855753646677471558e-01
6.839546191247973805e-01
6.839546191247973805e-01
6.823338735818476053e-01
6.807131280388979411e-01
6.807131280388979411e-01
6.782820097244732782e-01
6.758508914100486153e-01
6.758508914100486153e-01
6.758508914100486153e-01
6.774716369529983906e-01
6.807131280388979411e-01
6.888168557536467063e-01
7.066450567260940119e-01
7.293354943273906432e-01
7.714748784440842444e-01
8.152350081037277318e-01
8.638573743922204340e-01
8.865478119935170653e-01
8.411669367909238026e-01
7.730956239870340196e-01
7.066450567260940119e-01
6.564019448946515345e-01
6.110210696920583828e-01
6.158833063209075975e-01
6.320907617504052389e-01
6.515397082658023198e-01
6.612641815235008602e-01
6.790923824959481658e-01
6.871961102106969310e-01
6.904376012965964815e-01
6.936790923824959210e-01
6.936790923824959210e-01
6.936790923824959210e-01
6.936790923824959210e-01
6.936790923824959210e-01
6.936790923824959210e-01
6.936790923824959210e-01
6.936790923824959210e-01
6.936790923824959210e-01
6.936790923824959210e-01
6.936790923824959210e-01
6.952998379254456962e-01
6.969205834683954714e-01
7.017828200972446862e-01
7.050243111831442366e-01
7.050243111831442366e-01
7.098865478119935624e-01
7.147487844408427771e-01
7.212317666126417670e-01
7.260940032414910927e-01
7.325769854132900827e-01
7.406807131280388479e-01
7.504051863857373883e-01
7.568881685575364893e-01
7.698541329011344692e-01
7.779578606158833454e-01
7.893030794165315500e-01
8.022690437601296409e-01
8.103727714748784061e-01
8.168557536466775071e-01
8.217179902755267218e-01
8.282009724473258228e-01
8.314424635332252622e-01
8.314424635332252622e-01
8.282009724473258228e-01
8.249594813614262723e-01
8.200972447325769465e-01
8.136142625607779566e-01
8.071312803889789667e-01
7.990275526742300904e-01
7.893030794165315500e-01
7.811993517017827848e-01
7.698541329011344692e-01
7.617504051863857040e-01
7.552674230145867140e-01
7.455429497568881736e-01
7.390599675850891837e-01
7.325769854132900827e-01
7.260940032414910927e-01
7.228525121555915423e-01
7.196110210696921028e-01
7.163695299837925523e-01
7.115072933549432266e-01
7.115072933549432266e-01
7.115072933549432266e-01
7.115072933549432266e-01
7.115072933549432266e-01
7.115072933549432266e-01
7.098865478119935624e-01
7.098865478119935624e-01
7.115072933549432266e-01
7.131280388978930018e-01
7.163695299837925523e-01
7.163695299837925523e-01
7.163695299837925523e-01
7.147487844408427771e-01
7.098865478119935624e-01
7.098865478119935624e-01
7.098865478119935624e-01
7.115072933549432266e-01
7.131280388978930018e-01
7.131280388978930018e-01
7.115072933549432266e-01
7.115072933549432266e-01
7.131280388978930018e-01
7.131280388978930018e-01
7.131280388978930018e-01
7.131280388978930018e-01
7.147487844408427771e-01
7.131280388978930018e-01
7.098865478119935624e-01
7.098865478119935624e-01
7.098865478119935624e-01
7.098865478119935624e-01
7.098865478119935624e-01
7.098865478119935624e-01
7.098865478119935624e-01
7.082658022690437871e-01
7.082658022690437871e-01
7.050243111831442366e-01
6.450567260940032188e-01
6.450567260940032188e-01
6.450567260940032188e-01
6.450567260940032188e-01
6.482982171799027693e-01
6.499189627228525445e-01
7.568881685575364893e-01
7.617504051863857040e-01
7.682333873581848049e-01
7.763371150729335701e-01
7.844408427876823353e-01
7.941653160453808757e-01
8.038897893030794162e-01
8.071312803889789667e-01
8.103727714748784061e-01
7.504051863857373883e-01
8.006482982171798657e-01
7.909238249594813253e-01
7.844408427876823353e-01
7.763371150729335701e-01
7.682333873581848049e-01
7.601296596434359287e-01
7.260940032414910927e-01
7.001620745542950219e-01
6.985413290113452467e-01
6.969205834683954714e-01
6.920583468395461457e-01
7.552674230145867140e-01
7.552674230145867140e-01
7.552674230145867140e-01
7.552674230145867140e-01
7.536466774716369388e-01
7.795786061588330096e-01
7.811993517017827848e-01
7.811993517017827848e-01
7.747163695299837949e-01
6.871961102106969310e-01
7.504051863857373883e-01
7.504051863857373883e-01
6.807131280388979411e-01
6.564019448946515345e-01
6.353322528363046784e-01
6.175040518638573728e-01
6.142625607779578223e-01
6.547811993517017592e-01
6.807131280388979411e-01
7.228525121555915423e-01
7.568881685575364893e-01
7.811993517017827848e-01
7.811993517017827848e-01
7.698541329011344692e-01
7.763371150729335701e-01
7.925445705024311005e-01
7.893030794165315500e-01
7.617504051863857040e-01
7.341977309562398579e-01
7.131280388978930018e-01
6.888168557536467063e-01
6.774716369529983906e-01
6.726094003241490649e-01
6.709886547811994006e-01
6.709886547811994006e-01
6.709886547811994006e-01
6.709886547811994006e-01
6.709886547811994006e-01
6.709886547811994006e-01
6.726094003241490649e-01
6.709886547811994006e-01
6.709886547811994006e-01
6.709886547811994006e-01
6.709886547811994006e-01
6.709886547811994006e-01
6.758508914100486153e-01
6.758508914100486153e-01
6.758508914100486153e-01
6.774716369529983906e-01
6.774716369529983906e-01
6.790923824959481658e-01
6.823338735818476053e-01
6.839546191247973805e-01
6.855753646677471558e-01
6.855753646677471558e-01
6.855753646677471558e-01
6.855753646677471558e-01
6.871961102106969310e-01
6.920583468395461457e-01
6.969205834683954714e-01
7.034035656401944614e-01
7.115072933549432266e-01
7.163695299837925523e-01
7.244732576985413175e-01
7.309562398703403074e-01
7.390599675850891837e-01
7.423014586709886231e-01
7.439222042139383984e-01
7.423014586709886231e-01
7.374392220421394084e-01
7.325769854132900827e-01
7.277147487844408680e-01
7.228525121555915423e-01
7.179902755267423275e-01
7.147487844408427771e-01
7.115072933549432266e-01
7.066450567260940119e-01
7.017828200972446862e-01
6.985413290113452467e-01
6.952998379254456962e-01
6.952998379254456962e-01
6.936790923824959210e-01
6.936790923824959210e-01
6.920583468395461457e-01
6.904376012965964815e-01
6.904376012965964815e-01
6.904376012965964815e-01
6.888168557536467063e-01
6.888168557536467063e-01
6.871961102106969310e-01
6.839546191247973805e-01
6.807131280388979411e-01
6.774716369529983906e-01
6.774716369529983906e-01
6.758508914100486153e-01
6.758508914100486153e-01
6.758508914100486153e-01
6.758508914100486153e-01
6.758508914100486153e-01
6.758508914100486153e-01
6.758508914100486153e-01
6.726094003241490649e-01
6.726094003241490649e-01
6.709886547811994006e-01
6.709886547811994006e-01
6.709886547811994006e-01
6.709886547811994006e-01
6.709886547811994006e-01
6.709886547811994006e-01
6.709886547811994006e-01
6.693679092382496254e-01
6.709886547811994006e-01
6.709886547811994006e-01
6.709886547811994006e-01
6.709886547811994006e-01
6.758508914100486153e-01
6.758508914100486153e-01
6.758508914100486153e-01
6.758508914100486153e-01
6.758508914100486153e-01
6.758508914100486153e-01
6.758508914100486153e-01
6.758508914100486153e-01
6.758508914100486153e-01
6.758508914100486153e-01
6.774716369529983906e-01
6.790923824959481658e-01
6.774716369529983906e-01
6.774716369529983906e-01
6.774716369529983906e-01
6.774716369529983906e-01
6.774716369529983906e-01
6.774716369529983906e-01
6.790923824959481658e-01
6.790923824959481658e-01
6.790923824959481658e-01
6.774716369529983906e-01
6.774716369529983906e-01
6.774716369529983906e-01
6.774716369529983906e-01
6.774716369529983906e-01
6.790923824959481658e-01
6.807131280388979411e-01
6.807131280388979411e-01
6.774716369529983906e-01
6.758508914100486153e-01
6.774716369529983906e-01
6.774716369529983906e-01
6.807131280388979411e-01
6.855753646677471558e-01
6.888168557536467063e-01
6.936790923824959210e-01
6.969205834683954714e-01
6.985413290113452467e-01
6.969205834683954714e-01
6.936790923824959210e-01
6.904376012965964815e-01
6.855753646677471558e-01
6.839546191247973805e-01
6.823338735818476053e-01
6.823338735818476053e-01
6.823338735818476053e-01
6.823338735818476053e-01
6.823338735818476053e-01
6.823338735818476053e-01
6.807131280388979411e-01
6.790923824959481658e-01
6.628849270664505244e-01
6.401944894651540041e-01
6.256077795786061380e-01
5.996758508914100672e-01
6.077795786061588323e-01
6.434359805510534436e-01
6.709886547811994006e-01
7.309562398703403074e-01
7.585089141004862645e-01
7.909238249594813253e-01
8.103727714748784061e-01
8.168557536466775071e-01
8.184764991896272823e-01
8.136142625607779566e-01
7.893030794165315500e-01
7.617504051863857040e-01
7.325769854132900827e-01
7.115072933549432266e-01
6.871961102106969310e-01
6.790923824959481658e-01
6.726094003241490649e-01
6.709886547811994006e-01
6.677471636952998502e-01
6.661264181523500749e-01
6.661264181523500749e-01
6.645056726094002997e-01
6.645056726094002997e-01
6.645056726094002997e-01
6.645056726094002997e-01
6.628849270664505244e-01
6.628849270664505244e-01
6.628849270664505244e-01
6.612641815235008602e-01
6.612641815235008602e-01
6.612641815235008602e-01
6.612641815235008602e-01
6.612641815235008602e-01
6.596434359805510850e-01
6.596434359805510850e-01
6.596434359805510850e-01
6.596434359805510850e-01
6.596434359805510850e-01
6.596434359805510850e-01
6.596434359805510850e-01
6.596434359805510850e-01
6.596434359805510850e-01
6.661264181523500749e-01
6.742301458670988401e-01
6.790923824959481658e-01
6.855753646677471558e-01
6.920583468395461457e-01
6.985413290113452467e-01
7.017828200972446862e-01
7.066450567260940119e-01
7.082658022690437871e-01
7.066450567260940119e-01
7.066450567260940119e-01
7.017828200972446862e-01
6.985413290113452467e-01
6.936790923824959210e-01
6.888168557536467063e-01
6.839546191247973805e-01
6.790923824959481658e-01
6.726094003241490649e-01
6.693679092382496254e-01
6.645056726094002997e-01
6.612641815235008602e-01
6.612641815235008602e-01
6.596434359805510850e-01
6.580226904376013097e-01
6.564019448946515345e-01
6.547811993517017592e-01
6.547811993517017592e-01
6.547811993517017592e-01
6.531604538087519840e-01
6.531604538087519840e-01
6.515397082658023198e-01
6.515397082658023198e-01
6.515397082658023198e-01
6.499189627228525445e-01
6.499189627228525445e-01
6.499189627228525445e-01
6.499189627228525445e-01
6.499189627228525445e-01
6.499189627228525445e-01
6.499189627228525445e-01
6.499189627228525445e-01
6.499189627228525445e-01
6.499189627228525445e-01
6.499189627228525445e-01
6.499189627228525445e-01
6.499189627228525445e-01
6.499189627228525445e-01
6.515397082658023198e-01
6.515397082658023198e-01
6.515397082658023198e-01
6.515397082658023198e-01
6.515397082658023198e-01
6.531604538087519840e-01
6.547811993517017592e-01
6.547811993517017592e-01
6.547811993517017592e-01
6.547811993517017592e-01
6.531604538087519840e-01
6.531604538087519840e-01
6.531604538087519840e-01
6.515397082658023198e-01
6.515397082658023198e-01
6.515397082658023198e-01
6.499189627228525445e-01
6.499189627228525445e-01
6.499189627228525445e-01
6.499189627228525445e-01
6.515397082658023198e-01
6.515397082658023198e-01
6.531604538087519840e-01
6.531604538087519840e-01
6.531604538087519840e-01
6.531604538087519840e-01
6.531604538087519840e-01
6.515397082658023198e-01
6.515397082658023198e-01
6.499189627228525445e-01
6.499189627228525445e-01
6.499189627228525445e-01
6.482982171799027693e-01
6.482982171799027693e-01
6.466774716369529941e-01
6.466774716369529941e-01
6.466774716369529941e-01
6.450567260940032188e-01
6.434359805510534436e-01
6.418152350081037794e-01
6.418152350081037794e-01
6.434359805510534436e-01
6.482982171799027693e-01
6.547811993517017592e-01
6.580226904376013097e-01
6.628849270664505244e-01
6.677471636952998502e-01
6.726094003241490649e-01
6.790923824959481658e-01
6.807131280388979411e-01
6.774716369529983906e-01
6.758508914100486153e-01
6.709886547811994006e-01
6.709886547811994006e-01
6.709886547811994006e-01
6.661264181523500749e-01
6.661264181523500749e-01
6.661264181523500749e-01
6.661264181523500749e-01
6.661264181523500749e-01
6.661264181523500749e-01
6.661264181523500749e-01
6.645056726094002997e-01
6.499189627228525445e-01
6.320907617504052389e-01
6.126418152350081581e-01
5.883306320907617515e-01
5.996758508914100672e-01
6.353322528363046784e-01
6.742301458670988401e-01
7.277147487844408680e-01
7.747163695299837949e-01
7.893030794165315500e-01
8.071312803889789667e-01
8.136142625607779566e-01
8.168557536466775071e-01
8.087520259319287419e-01
7.811993517017827848e-01
7.487844408427877241e-01
7.228525121555915423e-01
6.985413290113452467e-01
6.709886547811994006e-01
6.596434359805510850e-01
6.531604538087519840e-01
6.499189627228525445e-01
6.450567260940032188e-01
6.418152350081037794e-01
6.385737439222042289e-01
6.385737439222042289e-01
6.337115072933549031e-01
6.320907617504052389e-01
6.288492706645056884e-01
6.288492706645056884e-01
6.288492706645056884e-01
6.288492706645056884e-01
6.288492706645056884e-01
6.288492706645056884e-01
6.288492706645056884e-01
6.288492706645056884e-01
6.288492706645056884e-01
6.288492706645056884e-01
6.256077795786061380e-01
6.239870340356563627e-01
6.223662884927066985e-01
6.239870340356563627e-01
6.239870340356563627e-01
6.256077795786061380e-01
6.256077795786061380e-01
6.272285251215559132e-01
6.320907617504052389e-01
6.369529983792544536e-01
6.434359805510534436e-01
6.482982171799027693e-01
6.531604538087519840e-01
6.596434359805510850e-01
6.661264181523500749e-01
6.726094003241490649e-01
6.774716369529983906e-01
6.790923824959481658e-01
6.790923824959481658e-01
6.774716369529983906e-01
6.758508914100486153e-01
6.645056726094002997e-01
6.612641815235008602e-01
6.564019448946515345e-01
6.531604538087519840e-01
6.482982171799027693e-01
6.466774716369529941e-01
6.466774716369529941e-01
6.450567260940032188e-01
6.450567260940032188e-01
6.450567260940032188e-01
6.434359805510534436e-01
6.418152350081037794e-01
6.418152350081037794e-01
6.418152350081037794e-01
6.401944894651540041e-01
6.401944894651540041e-01
6.401944894651540041e-01
6.385737439222042289e-01
6.385737439222042289e-01
6.385737439222042289e-01
6.353322528363046784e-01
6.337115072933549031e-01
6.320907617504052389e-01
6.304700162074554637e-01
6.304700162074554637e-01
6.304700162074554637e-01
6.304700162074554637e-01
6.304700162074554637e-01
6.304700162074554637e-01
6.304700162074554637e-01
6.304700162074554637e-01
6.304700162074554637e-01
6.304700162074554637e-01
6.320907617504052389e-01
6.320907617504052389e-01
6.320907617504052389e-01
6.320907617504052389e-01
6.320907617504052389e-01
6.320907617504052389e-01
6.337115072933549031e-01
6.337115072933549031e-01
6.337115072933549031e-01
6.337115072933549031e-01
6.337115072933549031e-01
6.337115072933549031e-01
6.353322528363046784e-01
6.353322528363046784e-01
6.353322528363046784e-01
6.369529983792544536e-01
6.369529983792544536e-01
6.385737439222042289e-01
6.385737439222042289e-01
6.385737439222042289e-01
6.401944894651540041e-01
6.401944894651540041e-01
6.401944894651540041e-01
6.418152350081037794e-01
6.418152350081037794e-01
6.434359805510534436e-01
6.434359805510534436e-01
6.434359805510534436e-01
6.450567260940032188e-01
6.450567260940032188e-01
6.466774716369529941e-01
6.466774716369529941e-01
6.499189627228525445e-01
6.515397082658023198e-01
6.531604538087519840e-01
6.547811993517017592e-01
6.547811993517017592e-01
6.547811993517017592e-01
6.547811993517017592e-01
6.547811993517017592e-01
6.547811993517017592e-01
6.547811993517017592e-01
6.547811993517017592e-01
6.547811993517017592e-01
6.547811993517017592e-01
6.564019448946515345e-01
6.564019448946515345e-01
6.564019448946515345e-01
6.564019448946515345e-01
6.564019448946515345e-01
6.450567260940032188e-01
6.450567260940032188e-01
6.450567260940032188e-01
6.450567260940032188e-01
6.450567260940032188e-01
6.515397082658023198e-01
7.228525121555915423e-01
7.617504051863857040e-01
7.682333873581848049e-01
7.779578606158833454e-01
7.860615883306321106e-01
7.957860615883306510e-01
8.038897893030794162e-01
8.071312803889789667e-01
8.103727714748784061e-01
8.071312803889789667e-01
8.038897893030794162e-01
7.925445705024311005e-01
7.844408427876823353e-01
7.779578606158833454e-01
7.666126418152350297e-01
7.244732576985413175e-01
6.693679092382496254e-01
6.320907617504052389e-01
5.186385737439221932e-01
4.197730956239870137e-01
2.641815235008103668e-01
1.410048622366288362e-01
4.538087520259319330e-02
1.523500810372771519e-01
4.764991896272285365e-01
6.077795786061588323e-01
8.865478119935170653e-01
1.000000000000000000e+00
9.432739059967585327e-01
8.670988654781199845e-01
8.071312803889789667e-01
7.601296596434359287e-01
7.179902755267423275e-01
7.017828200972446862e-01
6.952998379254456962e-01
6.888168557536467063e-01
6.823338735818476053e-01
6.790923824959481658e-01
6.726094003241490649e-01
6.693679092382496254e-01
6.628849270664505244e-01
6.596434359805510850e-01
6.580226904376013097e-01
6.547811993517017592e-01
6.515397082658023198e-01
6.482982171799027693e-01
6.418152350081037794e-01
6.385737439222042289e-01
6.353322528363046784e-01
6.304700162074554637e-01
6.256077795786061380e-01
6.158833063209075975e-01
6.094003241491086076e-01
5.964343598055105167e-01
5.850891410048622010e-01
5.705024311183144459e-01
5.607779578606159054e-01
5.413290113452188246e-01
5.202593192868719685e-01
5.072933549432738776e-01
4.959481361426256174e-01
4.764991896272285365e-01
4.635332252836304456e-01
4.521880064829821855e-01
4.440842787682333648e-01
4.376012965964343748e-01
4.376012965964343748e-01
4.408427876823338698e-01
4.457050243111831400e-01
4.554294975688816804e-01
4.667747163695299961e-01
4.846029173419773017e-01
5.024311183144246629e-01
5.170178282009724180e-01
5.413290113452188246e-01
5.623987034035656807e-01
5.786061588330632111e-01
5.931928687196109662e-01
6.094003241491086076e-01
6.223662884927066985e-01
6.337115072933549031e-01
6.418152350081037794e-01
6.482982171799027693e-01
6.515397082658023198e-01
6.531604538087519840e-01
6.564019448946515345e-01
6.596434359805510850e-01
6.612641815235008602e-01
6.628849270664505244e-01
6.645056726094002997e-01
6.645056726094002997e-01
6.645056726094002997e-01
6.645056726094002997e-01
6.645056726094002997e-01
6.645056726094002997e-01
6.628849270664505244e-01
6.628849270664505244e-01
6.628849270664505244e-01
6.645056726094002997e-01
6.645056726094002997e-01
6.645056726094002997e-01
6.645056726094002997e-01
6.645056726094002997e-01
6.645056726094002997e-01
6.645056726094002997e-01
6.645056726094002997e-01
6.661264181523500749e-01
6.661264181523500749e-01
6.661264181523500749e-01
6.661264181523500749e-01
6.661264181523500749e-01
6.693679092382496254e-01
6.742301458670988401e-01
6.742301458670988401e-01
6.726094003241490649e-01
6.726094003241490649e-01
6.726094003241490649e-01
6.726094003241490649e-01
6.726094003241490649e-01
6.726094003241490649e-01
6.726094003241490649e-01
6.709886547811994006e-01
6.709886547811994006e-01
6.709886547811994006e-01
6.709886547811994006e-01
6.709886547811994006e-01
6.661264181523500749e-01
6.661264181523500749e-01
6.661264181523500749e-01
6.645056726094002997e-01
6.645056726094002997e-01
6.628849270664505244e-01
6.628849270664505244e-01
6.612641815235008602e-01
6.612641815235008602e-01
6.604538087520259726e-01
6.596434359805510850e-01
6.596434359805510850e-01
6.580226904376013097e-01
6.580226904376013097e-01
6.580226904376013097e-01
6.531604538087519840e-01
6.499189627228525445e-01
6.466774716369529941e-01
6.434359805510534436e-01
6.401944894651540041e-01
6.337115072933549031e-01
6.304700162074554637e-01
6.256077795786061380e-01
6.256077795786061380e-01
6.256077795786061380e-01
6.288492706645056884e-01
6.288492706645056884e-01
6.320907617504052389e-01
6.337115072933549031e-01
6.353322528363046784e-01
6.369529983792544536e-01
6.385737439222042289e-01
6.418152350081037794e-01
6.450567260940032188e-01
6.482982171799027693e-01
6.499189627228525445e-01
6.515397082658023198e-01
6.515397082658023198e-01
6.531604538087519840e-01
6.547811993517017592e-01
6.547811993517017592e-01
6.564019448946515345e-01
6.564019448946515345e-01
6.531604538087519840e-01
6.320907617504052389e-01
5.996758508914100672e-01
5.186385737439221932e-01
4.068071312803889783e-01
2.852512155591572229e-01
1.199351701782820079e-01
3.079416531604537918e-02
5.996758508914100394e-02
3.338735818476499251e-01
5.834683954619124258e-01
7.633711507293354792e-01
9.983792544570502248e-01
9.578606158833062878e-01
8.752025931928687497e-01
8.087520259319287419e-01
7.390599675850891837e-01
7.001620745542950219e-01
6.807131280388979411e-01
6.709886547811994006e-01
6.628849270664505244e-01
6.596434359805510850e-01
6.564019448946515345e-01
6.515397082658023198e-01
6.482982171799027693e-01
6.450567260940032188e-01
6.450567260940032188e-01
6.418152350081037794e-01
6.369529983792544536e-01
6.337115072933549031e-01
6.272285251215559132e-01
6.239870340356563627e-01
6.191247974068071480e-01
6.142625607779578223e-01
6.077795786061588323e-01
5.996758508914100672e-01
5.931928687196109662e-01
5.834683954619124258e-01
5.737439222042138853e-01
5.640194489465153449e-01
5.494327390599675898e-01
5.380875202593192741e-01
5.218800648298217437e-01
5.056726094003241023e-01
4.894651539708265719e-01
4.748784440842787613e-01
4.586709886547811754e-01
4.424635332252836450e-01
4.327390599675851046e-01
4.197730956239870137e-01
4.068071312803889783e-01
4.051863857374392031e-01
4.068071312803889783e-01
4.116693679092382485e-01
4.213938411669367889e-01
4.327390599675851046e-01
4.489465153970826350e-01
4.667747163695299961e-01
4.878444084278767967e-01
5.072933549432738776e-01
5.251215559157211832e-01
5.478119935170178145e-01
5.623987034035656807e-01
5.769854132901134358e-01
5.883306320907617515e-01
5.980551053484602919e-01
6.061588330632090571e-01
6.110210696920583828e-01
6.158833063209075975e-01
6.191247974068071480e-01
6.207455429497569233e-01
6.223662884927066985e-01
6.256077795786061380e-01
6.288492706645056884e-01
6.304700162074554637e-01
6.320907617504052389e-01
6.337115072933549031e-01
6.353322528363046784e-01
6.369529983792544536e-01
6.385737439222042289e-01
6.385737439222042289e-01
6.401944894651540041e-01
6.418152350081037794e-01
6.418152350081037794e-01
6.434359805510534436e-01
6.434359805510534436e-01
6.450567260940032188e-01
6.450567260940032188e-01
6.466774716369529941e-01
6.482982171799027693e-01
6.482982171799027693e-01
6.434359805510534436e-01
6.401944894651540041e-01
6.353322528363046784e-01
6.320907617504052389e-01
6.320907617504052389e-01
6.304700162074554637e-01
6.304700162074554637e-01
6.304700162074554637e-01
6.304700162074554637e-01
6.320907617504052389e-01
6.320907617504052389e-01
6.320907617504052389e-01
6.320907617504052389e-01
6.304700162074554637e-01
6.272285251215559132e-01
6.256077795786061380e-01
6.256077795786061380e-01
6.256077795786061380e-01
6.256077795786061380e-01
6.256077795786061380e-01
6.256077795786061380e-01
6.256077795786061380e-01
6.256077795786061380e-01
6.256077795786061380e-01
6.256077795786061380e-01
6.256077795786061380e-01
6.239870340356563627e-01
6.239870340356563627e-01
6.223662884927066985e-01
6.223662884927066985e-01
6.207455429497569233e-01
6.191247974068071480e-01
6.158833063209075975e-01
6.158833063209075975e-01
6.110210696920583828e-01
6.077795786061588323e-01
6.029173419773096176e-01
6.012965964343598424e-01
5.996758508914100672e-01
5.964343598055105167e-01
5.915721231766613020e-01
5.931928687196109662e-01
5.980551053484602919e-01
6.045380875202592819e-01
6.094003241491086076e-01
6.110210696920583828e-01
6.110210696920583828e-01
6.126418152350081581e-01
6.126418152350081581e-01
6.126418152350081581e-01
6.142625607779578223e-01
6.158833063209075975e-01
6.158833063209075975e-01
6.158833063209075975e-01
6.158833063209075975e-01
6.158833063209075975e-01
6.175040518638573728e-01
6.175040518638573728e-01
6.191247974068071480e-01
6.029173419773096176e-01
5.721231766612642211e-01
5.089141004862236528e-01
4.003241491085899328e-01
2.739059967585089073e-01
1.329011345218800710e-01
2.593192868719610897e-02
0.000000000000000000e+00
2.398703403565640158e-01
5.089141004862236528e-01
6.693679092382496254e-01
9.546191247974068483e-01
9.238249594813614518e-01
8.492706645056725678e-01
7.698541329011344692e-01
7.131280388978930018e-01
6.580226904376013097e-01
6.304700162074554637e-01
6.158833063209075975e-01
6.126418152350081581e-01
6.077795786061588323e-01
6.077795786061588323e-01
6.029173419773096176e-01
5.996758508914100672e-01
5.996758508914100672e-01
5.964343598055105167e-01
5.931928687196109662e-01
5.899513776337115267e-01
5.867098865478119762e-01
5.818476499189627615e-01
5.753646677471636606e-01
5.688816855753646706e-01
5.656401944894651201e-01
5.623987034035656807e-01
5.575364667747163550e-01
5.510534846029173650e-01
5.380875202593192741e-01
5.267423014586709584e-01
5.186385737439221932e-01
5.072933549432738776e-01
4.943273905996758422e-01
4.797406807131280315e-01
4.651539708265802209e-01
4.505672609400324102e-01
4.327390599675851046e-01
4.149108589951377435e-01
3.987034035656402131e-01
3.841166936790924025e-01
3.711507293354943116e-01
3.581847649918962762e-01
3.500810372771475110e-01
3.517017828200972307e-01
3.565640194489465009e-01
3.630470016207455464e-01
3.743922204213938620e-01
3.905996758508913924e-01
4.051863857374392031e-01
4.262560777957860592e-01
4.473257698541329153e-01
4.651539708265802209e-01
4.846029173419773017e-01
5.008103727714748876e-01
5.186385737439221932e-01
5.332252836304700594e-01
5.478119935170178145e-01
5.559157212317665797e-01
5.640194489465153449e-01
5.721231766612642211e-01
5.753646677471636606e-01
5.786061588330632111e-01
5.802269043760129863e-01
5.818476499189627615e-01
5.834683954619124258e-01
5.850891410048622010e-01
5.867098865478119762e-01
5.883306320907617515e-01
5.899513776337115267e-01
5.899513776337115267e-01
5.899513776337115267e-01
5.915721231766613020e-01
5.915721231766613020e-01
5.867098865478119762e-01
5.850891410048622010e-01
5.850891410048622010e-01
5.867098865478119762e-01
5.867098865478119762e-01
5.883306320907617515e-01
5.899513776337115267e-01
5.899513776337115267e-01
5.915721231766613020e-01
5.915721231766613020e-01
5.915721231766613020e-01
5.915721231766613020e-01
5.899513776337115267e-01
5.899513776337115267e-01
5.915721231766613020e-01
5.931928687196109662e-01
5.931928687196109662e-01
5.948136142625607414e-01
5.948136142625607414e-01
5.964343598055105167e-01
5.964343598055105167e-01
5.980551053484602919e-01
5.980551053484602919e-01
5.980551053484602919e-01
5.980551053484602919e-01
5.948136142625607414e-01
5.948136142625607414e-01
5.915721231766613020e-01
5.915721231766613020e-01
5.915721231766613020e-01
5.915721231766613020e-01
5.915721231766613020e-01
5.915721231766613020e-01
5.915721231766613020e-01
5.899513776337115267e-01
5.899513776337115267e-01
5.883306320907617515e-01
5.867098865478119762e-01
5.834683954619124258e-01
5.753646677471636606e-01
5.705024311183144459e-01
5.672609400324148954e-01
5.688816855753646706e-01
5.705024311183144459e-01
5.705024311183144459e-01
5.737439222042138853e-01
5.737439222042138853e-01
5.769854132901134358e-01
5.786061588330632111e-01
5.834683954619124258e-01
5.899513776337115267e-01
5.915721231766613020e-01
5.915721231766613020e-01
5.915721231766613020e-01
5.931928687196109662e-01
5.931928687196109662e-01
5.931928687196109662e-01
5.931928687196109662e-01
5.948136142625607414e-01
5.948136142625607414e-01
5.948136142625607414e-01
5.769854132901134358e-01
5.445705024311182640e-01
4.781199351701782563e-01
3.630470016207455464e-01
2.350081037277147455e-01
1.085899513776337061e-01
1.296596434359805448e-02
