4.889779559118236363e-01
4.889779559118236363e-01
4.866356088800978807e-01
4.842932618483721252e-01
4.819509148166463142e-01
4.796085677849204476e-01
4.772662207531946366e-01
4.749238737214688810e-01
4.725815266897431255e-01
4.702391796580173144e-01
4.678968326262915589e-01
4.655544855945658034e-01
4.632121385628399923e-01
4.608697915311141258e-01
4.585274444993883702e-01
4.561850974676625592e-01
4.538427504359368037e-01
4.515004034042110481e-01
4.491580563724852371e-01
4.468157093407594815e-01
4.444733623090337260e-01
4.421310152773078039e-01
4.397886682455820484e-01
4.374463212138562929e-01
4.351039741821304818e-01
4.327616271504047263e-01
4.304192801186789707e-01
4.280769330869531597e-01
4.257345860552272931e-01
4.233922390235014821e-01
4.210498919917757266e-01
4.187075449600499710e-01
4.163651979283241600e-01
4.140228508965984044e-01
4.116805038648726489e-01
4.093381568331468379e-01
4.069958098014210823e-01
4.046534627696952158e-01
4.023111157379694047e-01
3.999687687062436492e-01
3.976264216745178937e-01
3.952840746427920826e-01
3.929417276110663271e-01
3.905993805793405715e-01
3.882570335476146495e-01
3.859146865158888939e-01
3.835723394841631384e-01
3.812299924524373274e-01
3.788876454207115718e-01
3.765452983889858163e-01
3.742029513572600052e-01
3.718606043255342497e-01
3.695182572938083276e-01
3.671759102620825721e-01
3.648335632303568166e-01
3.624912161986310055e-01
3.601488691669052500e-01
3.578065221351794944e-01
3.554641751034536834e-01
3.531218280717278168e-01
3.507794810400020613e-01
3.484371340082762503e-01
3.460947869765504947e-01
3.437524399448247392e-01
3.414100929130989281e-01
3.390677458813731726e-01
3.367253988496474171e-01
3.343830518179216060e-01
3.320407047861957395e-01
3.296983577544699839e-01
3.273560107227441729e-01
3.250136636910184174e-01
3.226713166592926618e-01
3.203289696275668508e-01
3.179866225958409842e-01
3.156442755641151732e-01
3.133019285323894176e-01
3.109595815006636621e-01
3.086172344689378511e-01
2.505010020040079888e-01
2.505010020040079888e-01
2.444889779559118181e-01
0.000000000000000000e+00
0.000000000000000000e+00
0.000000000000000000e+00
0.000000000000000000e+00
0.000000000000000000e+00
0.000000000000000000e+00
0.000000000000000000e+00
0.000000000000000000e+00
0.000000000000000000e+00
0.000000000000000000e+00
0.000000000000000000e+00
0.000000000000000000e+00
0.000000000000000000e+00
0.000000000000000000e+00
0.000000000000000000e+00
0.000000000000000000e+00
0.000000000000000000e+00
0.000000000000000000e+00
0.000000000000000000e+00
0.000000000000000000e+00
0.000000000000000000e+00
0.000000000000000000e+00
0.000000000000000000e+00
0.000000000000000000e+00
0.000000000000000000e+00
0.000000000000000000e+00
0.000000000000000000e+00
0.000000000000000000e+00
0.000000000000000000e+00
0.000000000000000000e+00
0.000000000000000000e+00
0.000000000000000000e+00
0.000000000000000000e+00
0.000000000000000000e+00
0.000000000000000000e+00
0.000000000000000000e+00
2.464929859719438843e-01
2.545090180360721210e-01
2.565130260521041872e-01
2.965931863727455098e-01
4.809619238476953718e-01
4.809619238476953718e-01
4.729458917835671072e-01
3.386773547094188430e-01
3.446893787575150414e-01
3.386773547094188430e-01
3.406813627254509091e-01
3.426853707414829753e-01
3.406813627254509091e-01
4.829659318637274379e-01
4.809619238476953718e-01
4.809619238476953718e-01
3.366733466933867769e-01
3.326653306613226446e-01
3.286573146292585124e-01
3.246492985971943801e-01
3.246492985971943801e-01
3.226452905811623140e-01
3.246492985971943801e-01
3.266533066132264462e-01
3.266533066132264462e-01
3.186372745490981817e-01
3.126252505010019833e-01
3.046092184368737743e-01
2.985971943887775759e-01
2.925851703406813775e-01
2.885771543086172453e-01
2.865731462925851791e-01
2.825651302605210469e-01
2.805611222444889807e-01
2.765531062124248485e-01
2.685370741482965840e-01
2.645290581162324517e-01
2.605210420841683194e-01
2.545090180360721210e-01
2.525050100200400549e-01
2.464929859719438843e-01
2.424849699398797520e-01
2.404809619238476859e-01
2.384769539078156197e-01
2.364729458917835536e-01
2.304609218436873830e-01
2.284569138276553169e-01
2.304609218436873830e-01
2.324649298597194491e-01
2.324649298597194491e-01
2.364729458917835536e-01
2.404809619238476859e-01
2.464929859719438843e-01
2.505010020040079888e-01
2.565130260521041872e-01
2.625250501002003856e-01
2.705410821643286501e-01
2.765531062124248485e-01
2.825651302605210469e-01
2.905811623246493114e-01
2.925851703406813775e-01
2.965931863727455098e-01
3.006012024048096420e-01
3.006012024048096420e-01
3.026052104208417082e-01
3.066132264529057849e-01
3.126252505010019833e-01
3.186372745490981817e-01
3.206412825651302478e-01
3.166332665330661156e-01
3.146292585170340494e-01
3.146292585170340494e-01
3.146292585170340494e-01
3.166332665330661156e-01
3.166332665330661156e-01
3.186372745490981817e-01
3.186372745490981817e-01
3.186372745490981817e-01
3.186372745490981817e-01
3.186372745490981817e-01
3.096192384769538841e-01
3.006012024048096420e-01
3.006012024048096420e-01
2.985971943887775759e-01
2.985971943887775759e-01
2.985971943887775759e-01
2.985971943887775759e-01
2.985971943887775759e-01
2.985971943887775759e-01
2.965931863727455098e-01
2.945891783567134437e-01
2.965931863727455098e-01
3.006012024048096420e-01
3.146292585170340494e-01
3.146292585170340494e-01
3.166332665330661156e-01
3.186372745490981817e-01
3.206412825651302478e-01
3.206412825651302478e-01
3.166332665330661156e-01
3.146292585170340494e-01
3.106212424849699172e-01
3.086172344689378511e-01
3.066132264529057849e-01
3.046092184368737743e-01
3.006012024048096420e-01
2.985971943887775759e-01
3.006012024048096420e-01
3.006012024048096420e-01
3.026052104208417082e-01
3.026052104208417082e-01
3.066132264529057849e-01
3.086172344689378511e-01
3.046092184368737743e-01
2.985971943887775759e-01
2.965931863727455098e-01
2.965931863727455098e-01
2.965931863727455098e-01
2.965931863727455098e-01
2.955911823647294767e-01
2.945891783567134437e-01
2.945891783567134437e-01
2.945891783567134437e-01
2.945891783567134437e-01
2.945891783567134437e-01
2.965931863727455098e-01
2.965931863727455098e-01
2.965931863727455098e-01
2.965931863727455098e-01
2.965931863727455098e-01
2.985971943887775759e-01
2.985971943887775759e-01
2.985971943887775759e-01
2.985971943887775759e-01
2.945891783567134437e-01
2.945891783567134437e-01
2.905811623246493114e-01
2.905811623246493114e-01
2.925851703406813775e-01
2.925851703406813775e-01
2.945891783567134437e-01
2.945891783567134437e-01
2.965931863727455098e-01
2.965931863727455098e-01
2.965931863727455098e-01
2.985971943887775759e-01
3.006012024048096420e-01
3.026052104208417082e-01
3.026052104208417082e-01
3.086172344689378511e-01
3.086172344689378511e-01
3.146292585170340494e-01
3.186372745490981817e-01
3.206412825651302478e-01
3.306613226452905785e-01
3.366733466933867769e-01
3.446893787575150414e-01
3.446893787575150414e-01
3.446893787575150414e-01
3.426853707414829753e-01
3.446893787575150414e-01
3.446893787575150414e-01
3.466933867735471075e-01
3.466933867735471075e-01
3.507014028056112398e-01
3.386773547094188430e-01
3.166332665330661156e-01
2.885771543086172453e-01
2.464929859719438843e-01
2.144288577154308539e-01
1.823647294589178236e-01
1.883767535070140220e-01
2.144288577154308539e-01
2.525050100200400549e-01
2.885771543086172453e-01
3.026052104208417082e-01
3.386773547094188430e-01
3.587174348697395043e-01
3.567134268537074382e-01
3.507014028056112398e-01
3.446893787575150414e-01
3.446893787575150414e-01
3.446893787575150414e-01
3.446893787575150414e-01
3.446893787575150414e-01
3.466933867735471075e-01
3.466933867735471075e-01
3.466933867735471075e-01
3.466933867735471075e-01
3.466933867735471075e-01
3.466933867735471075e-01
3.446893787575150414e-01
3.406813627254509091e-01
3.406813627254509091e-01
3.406813627254509091e-01
3.406813627254509091e-01
3.406813627254509091e-01
3.406813627254509091e-01
3.386773547094188430e-01
3.386773547094188430e-01
3.386773547094188430e-01
3.366733466933867769e-01
3.346693386773547108e-01
3.266533066132264462e-01
3.226452905811623140e-01
3.226452905811623140e-01
3.246492985971943801e-01
3.206412825651302478e-01
3.166332665330661156e-01
3.146292585170340494e-01
3.026052104208417082e-01
3.026052104208417082e-01
3.026052104208417082e-01
2.985971943887775759e-01
2.925851703406813775e-01
2.885771543086172453e-01
2.805611222444889807e-01
2.805611222444889807e-01
2.765531062124248485e-01
2.745490981963927823e-01
2.685370741482965840e-01
2.605210420841683194e-01
2.565130260521041872e-01
2.545090180360721210e-01
2.565130260521041872e-01
2.605210420841683194e-01
2.685370741482965840e-01
2.725450901803607162e-01
2.725450901803607162e-01
2.765531062124248485e-01
2.885771543086172453e-01
2.965931863727455098e-01
3.046092184368737743e-01
3.126252505010019833e-01
3.186372745490981817e-01
3.206412825651302478e-01
3.226452905811623140e-01
3.246492985971943801e-01
3.306613226452905785e-01
3.366733466933867769e-01
3.366733466933867769e-01
3.366733466933867769e-01
3.366733466933867769e-01
3.346693386773547108e-01
3.346693386773547108e-01
3.406813627254509091e-01
3.426853707414829753e-01
3.486973947895791737e-01
3.446893787575150414e-01
3.446893787575150414e-01
3.446893787575150414e-01
3.466933867735471075e-01
3.466933867735471075e-01
3.466933867735471075e-01
3.446893787575150414e-01
3.386773547094188430e-01
3.346693386773547108e-01
3.286573146292585124e-01
3.266533066132264462e-01
3.266533066132264462e-01
3.246492985971943801e-01
3.246492985971943801e-01
3.226452905811623140e-01
3.226452905811623140e-01
3.206412825651302478e-01
3.206412825651302478e-01
3.186372745490981817e-01
3.186372745490981817e-01
3.186372745490981817e-01
3.186372745490981817e-01
3.186372745490981817e-01
3.166332665330661156e-01
3.166332665330661156e-01
3.166332665330661156e-01
3.166332665330661156e-01
3.166332665330661156e-01
3.186372745490981817e-01
3.186372745490981817e-01
3.186372745490981817e-01
3.166332665330661156e-01
3.166332665330661156e-01
3.166332665330661156e-01
3.166332665330661156e-01
3.166332665330661156e-01
3.166332665330661156e-01
3.206412825651302478e-01
3.226452905811623140e-01
3.226452905811623140e-01
3.226452905811623140e-01
3.226452905811623140e-01
3.206412825651302478e-01
3.206412825651302478e-01
3.206412825651302478e-01
3.206412825651302478e-01
3.206412825651302478e-01
3.246492985971943801e-01
3.246492985971943801e-01
3.246492985971943801e-01
3.186372745490981817e-01
3.146292585170340494e-01
3.166332665330661156e-01
3.186372745490981817e-01
3.186372745490981817e-01
3.186372745490981817e-01
3.186372745490981817e-01
3.186372745490981817e-01
3.186372745490981817e-01
3.206412825651302478e-01
3.226452905811623140e-01
3.246492985971943801e-01
3.246492985971943801e-01
3.246492985971943801e-01
3.226452905811623140e-01
3.226452905811623140e-01
3.206412825651302478e-01
3.246492985971943801e-01
3.286573146292585124e-01
3.286573146292585124e-01
3.266533066132264462e-01
3.246492985971943801e-01
3.246492985971943801e-01
3.266533066132264462e-01
3.266533066132264462e-01
3.266533066132264462e-01
3.286573146292585124e-01
3.286573146292585124e-01
3.286573146292585124e-01
3.306613226452905785e-01
3.306613226452905785e-01
3.326653306613226446e-01
3.326653306613226446e-01
3.366733466933867769e-01
3.366733466933867769e-01
3.366733466933867769e-01
3.466933867735471075e-01
3.486973947895791737e-01
3.587174348697395043e-01
3.507014028056112398e-01
3.466933867735471075e-01
3.446893787575150414e-01
3.426853707414829753e-01
3.406813627254509091e-01
3.406813627254509091e-01
3.426853707414829753e-01
3.507014028056112398e-01
3.567134268537074382e-01
3.386773547094188430e-01
3.186372745490981817e-01
2.705410821643286501e-01
2.364729458917835536e-01
1.923847695390781543e-01
1.703406813627254546e-01
1.823647294589178236e-01
2.204408817635270523e-01
2.565130260521041872e-01
2.845691382765531130e-01
3.106212424849699172e-01
3.386773547094188430e-01
3.507014028056112398e-01
3.486973947895791737e-01
3.466933867735471075e-01
3.446893787575150414e-01
3.426853707414829753e-01
3.426853707414829753e-01
3.406813627254509091e-01
3.406813627254509091e-01
3.406813627254509091e-01
3.386773547094188430e-01
3.386773547094188430e-01
3.386773547094188430e-01
3.366733466933867769e-01
3.366733466933867769e-01
3.366733466933867769e-01
3.386773547094188430e-01
3.426853707414829753e-01
3.426853707414829753e-01
3.406813627254509091e-01
3.406813627254509091e-01
3.406813627254509091e-01
3.406813627254509091e-01
3.386773547094188430e-01
3.366733466933867769e-01
3.366733466933867769e-01
3.366733466933867769e-01
3.346693386773547108e-01
3.346693386773547108e-01
3.326653306613226446e-01
3.326653306613226446e-01
3.306613226452905785e-01
3.266533066132264462e-01
3.206412825651302478e-01
3.166332665330661156e-01
3.146292585170340494e-01
3.066132264529057849e-01
2.985971943887775759e-01
2.965931863727455098e-01
2.905811623246493114e-01
2.785571142284569146e-01
2.765531062124248485e-01
2.725450901803607162e-01
2.745490981963927823e-01
2.645290581162324517e-01
2.625250501002003856e-01
2.525050100200400549e-01
2.565130260521041872e-01
2.585170340681362533e-01
2.605210420841683194e-01
2.645290581162324517e-01
2.685370741482965840e-01
2.765531062124248485e-01
2.865731462925851791e-01
2.925851703406813775e-01
2.985971943887775759e-01
3.086172344689378511e-01
3.166332665330661156e-01
3.186372745490981817e-01
3.226452905811623140e-01
3.246492985971943801e-01
3.286573146292585124e-01
3.346693386773547108e-01
3.366733466933867769e-01
3.366733466933867769e-01
3.326653306613226446e-01
3.346693386773547108e-01
3.346693386773547108e-01
3.426853707414829753e-01
3.426853707414829753e-01
3.426853707414829753e-01
3.426853707414829753e-01
3.426853707414829753e-01
3.426853707414829753e-01
3.426853707414829753e-01
3.426853707414829753e-01
3.426853707414829753e-01
3.426853707414829753e-01
3.406813627254509091e-01
3.406813627254509091e-01
3.386773547094188430e-01
3.386773547094188430e-01
3.366733466933867769e-01
3.366733466933867769e-01
3.346693386773547108e-01
3.326653306613226446e-01
3.326653306613226446e-01
3.326653306613226446e-01
3.306613226452905785e-01
3.306613226452905785e-01
3.306613226452905785e-01
3.346693386773547108e-01
3.366733466933867769e-01
3.406813627254509091e-01
3.406813627254509091e-01
3.406813627254509091e-01
3.426853707414829753e-01
3.426853707414829753e-01
3.426853707414829753e-01
3.426853707414829753e-01
3.446893787575150414e-01
3.446893787575150414e-01
3.446893787575150414e-01
3.426853707414829753e-01
3.426853707414829753e-01
3.426853707414829753e-01
3.426853707414829753e-01
3.406813627254509091e-01
3.406813627254509091e-01
3.406813627254509091e-01
3.406813627254509091e-01
3.386773547094188430e-01
3.386773547094188430e-01
3.386773547094188430e-01
3.386773547094188430e-01
3.366733466933867769e-01
3.366733466933867769e-01
3.346693386773547108e-01
3.326653306613226446e-01
3.326653306613226446e-01
3.306613226452905785e-01
3.306613226452905785e-01
3.306613226452905785e-01
3.306613226452905785e-01
3.346693386773547108e-01
3.366733466933867769e-01
3.386773547094188430e-01
3.386773547094188430e-01
3.386773547094188430e-01
3.386773547094188430e-01
3.386773547094188430e-01
3.386773547094188430e-01
3.386773547094188430e-01
3.086172344689378511e-01
3.086172344689378511e-01
3.086172344689378511e-01
3.086172344689378511e-01
3.086172344689378511e-01
3.086172344689378511e-01
5.050100200400801098e-01
5.010020040080159776e-01
5.010020040080159776e-01
4.889779559118236363e-01
4.889779559118236363e-01
4.809619238476953718e-01
4.809619238476953718e-01
4.729458917835671072e-01
4.729458917835671072e-01
4.889779559118236363e-01
4.829659318637274379e-01
4.949899799599198347e-01
4.949899799599198347e-01
5.010020040080159776e-01
2.965931863727455098e-01
2.965931863727455098e-01
3.006012024048096420e-01
4.488977955911823692e-01
4.509018036072144353e-01
4.529058116232465014e-01
4.649298597194388982e-01
4.769539078156312395e-01
4.869739478957915702e-01
4.989979959919839669e-01
5.110220440881763082e-01
5.170340681362725066e-01
5.190380761523045727e-01
5.110220440881763082e-01
5.030060120240480437e-01
4.929859719438877685e-01
4.809619238476953718e-01
4.709418837675350966e-01
4.569138276553106337e-01
4.529058116232465014e-01
4.468937875751503030e-01
3.847695390781563085e-01
3.206412825651302478e-01
3.146292585170340494e-01
3.126252505010019833e-01
4.448897795591182369e-01
4.789579158316633056e-01
4.649298597194388982e-01
4.649298597194388982e-01
3.226452905811623140e-01
3.607214428857715705e-01
3.987975951903807714e-01
4.068136272545090359e-01
3.787575150300601101e-01
3.607214428857715705e-01
3.386773547094188430e-01
3.306613226452905785e-01
4.228456913827655095e-01
4.228456913827655095e-01
3.246492985971943801e-01
3.166332665330661156e-01
3.146292585170340494e-01
3.186372745490981817e-01
3.206412825651302478e-01
3.146292585170340494e-01
3.086172344689378511e-01
3.026052104208417082e-01
3.026052104208417082e-01
3.026052104208417082e-01
3.026052104208417082e-01
3.026052104208417082e-01
3.026052104208417082e-01
3.026052104208417082e-01
3.026052104208417082e-01
3.026052104208417082e-01
3.026052104208417082e-01
3.026052104208417082e-01
3.026052104208417082e-01
3.026052104208417082e-01
3.026052104208417082e-01
3.026052104208417082e-01
3.006012024048096420e-01
3.006012024048096420e-01
3.006012024048096420e-01
3.006012024048096420e-01
3.006012024048096420e-01
3.006012024048096420e-01
2.985971943887775759e-01
2.945891783567134437e-01
2.925851703406813775e-01
2.925851703406813775e-01
2.885771543086172453e-01
2.885771543086172453e-01
2.885771543086172453e-01
2.845691382765531130e-01
2.825651302605210469e-01
2.825651302605210469e-01
2.805611222444889807e-01
2.805611222444889807e-01
2.785571142284569146e-01
2.785571142284569146e-01
2.785571142284569146e-01
2.785571142284569146e-01
2.885771543086172453e-01
2.925851703406813775e-01
2.965931863727455098e-01
2.965931863727455098e-01
2.985971943887775759e-01
3.006012024048096420e-01
3.066132264529057849e-01
3.126252505010019833e-01
3.166332665330661156e-01
3.166332665330661156e-01
3.186372745490981817e-01
3.186372745490981817e-01
3.186372745490981817e-01
3.166332665330661156e-01
3.166332665330661156e-01
3.106212424849699172e-01
3.046092184368737743e-01
3.006012024048096420e-01
3.026052104208417082e-01
3.046092184368737743e-01
3.086172344689378511e-01
3.106212424849699172e-01
3.166332665330661156e-01
3.166332665330661156e-01
3.186372745490981817e-01
3.186372745490981817e-01
3.166332665330661156e-01
3.166332665330661156e-01
3.146292585170340494e-01
3.146292585170340494e-01
3.126252505010019833e-01
3.086172344689378511e-01
3.086172344689378511e-01
3.266533066132264462e-01
3.286573146292585124e-01
3.366733466933867769e-01
3.306613226452905785e-01
3.246492985971943801e-01
3.226452905811623140e-01
3.226452905811623140e-01
3.266533066132264462e-01
3.286573146292585124e-01
3.266533066132264462e-01
3.206412825651302478e-01
3.226452905811623140e-01
3.306613226452905785e-01
3.326653306613226446e-01
3.266533066132264462e-01
3.166332665330661156e-01
3.166332665330661156e-01
3.206412825651302478e-01
3.246492985971943801e-01
3.266533066132264462e-01
3.326653306613226446e-01
3.366733466933867769e-01
3.366733466933867769e-01
3.366733466933867769e-01
3.346693386773547108e-01
3.346693386773547108e-01
3.326653306613226446e-01
3.326653306613226446e-01
3.326653306613226446e-01
3.286573146292585124e-01
3.326653306613226446e-01
3.346693386773547108e-01
3.426853707414829753e-01
3.366733466933867769e-01
3.366733466933867769e-01
3.326653306613226446e-01
3.306613226452905785e-01
3.286573146292585124e-01
3.246492985971943801e-01
3.226452905811623140e-01
3.186372745490981817e-01
3.166332665330661156e-01
3.226452905811623140e-01
3.246492985971943801e-01
3.246492985971943801e-01
3.246492985971943801e-01
3.246492985971943801e-01
3.266533066132264462e-01
3.266533066132264462e-01
3.246492985971943801e-01
3.226452905811623140e-01
3.206412825651302478e-01
3.206412825651302478e-01
3.186372745490981817e-01
3.166332665330661156e-01
3.146292585170340494e-01
3.126252505010019833e-01
3.166332665330661156e-01
3.146292585170340494e-01
3.106212424849699172e-01
3.166332665330661156e-01
3.166332665330661156e-01
3.166332665330661156e-01
3.146292585170340494e-01
3.146292585170340494e-01
3.146292585170340494e-01
3.146292585170340494e-01
3.146292585170340494e-01
3.146292585170340494e-01
3.086172344689378511e-01
3.086172344689378511e-01
3.086172344689378511e-01
3.086172344689378511e-01
3.046092184368737743e-01
2.985971943887775759e-01
2.965931863727455098e-01
2.965931863727455098e-01
3.006012024048096420e-01
3.006012024048096420e-01
3.006012024048096420e-01
2.985971943887775759e-01
2.965931863727455098e-01
2.965931863727455098e-01
2.985971943887775759e-01
3.006012024048096420e-01
3.026052104208417082e-01
3.026052104208417082e-01
3.046092184368737743e-01
3.106212424849699172e-01
3.106212424849699172e-01
3.146292585170340494e-01
3.146292585170340494e-01
3.146292585170340494e-01
3.146292585170340494e-01
3.166332665330661156e-01
3.166332665330661156e-01
3.166332665330661156e-01
3.166332665330661156e-01
3.186372745490981817e-01
3.166332665330661156e-01
3.166332665330661156e-01
3.186372745490981817e-01
3.146292585170340494e-01
3.106212424849699172e-01
2.945891783567134437e-01
2.865731462925851791e-01
3.286573146292585124e-01
3.507014028056112398e-01
3.887775551102204408e-01
4.088176352705411021e-01
3.867735470941883746e-01
3.607214428857715705e-01
3.406813627254509091e-01
3.306613226452905785e-01
3.246492985971943801e-01
3.206412825651302478e-01
3.166332665330661156e-01
3.106212424849699172e-01
3.066132264529057849e-01
3.026052104208417082e-01
3.026052104208417082e-01
3.026052104208417082e-01
3.026052104208417082e-01
3.146292585170340494e-01
3.166332665330661156e-01
3.166332665330661156e-01
3.106212424849699172e-01
3.086172344689378511e-01
3.026052104208417082e-01
2.985971943887775759e-01
2.965931863727455098e-01
2.965931863727455098e-01
2.965931863727455098e-01
2.985971943887775759e-01
3.006012024048096420e-01
3.026052104208417082e-01
3.026052104208417082e-01
3.006012024048096420e-01
2.945891783567134437e-01
2.905811623246493114e-01
2.905811623246493114e-01
2.905811623246493114e-01
2.885771543086172453e-01
2.885771543086172453e-01
2.845691382765531130e-01
2.845691382765531130e-01
2.805611222444889807e-01
2.845691382765531130e-01
2.865731462925851791e-01
2.845691382765531130e-01
2.825651302605210469e-01
2.805611222444889807e-01
2.765531062124248485e-01
2.785571142284569146e-01
2.845691382765531130e-01
2.885771543086172453e-01
2.825651302605210469e-01
2.785571142284569146e-01
2.825651302605210469e-01
2.845691382765531130e-01
2.885771543086172453e-01
2.885771543086172453e-01
2.925851703406813775e-01
3.026052104208417082e-01
3.026052104208417082e-01
3.066132264529057849e-01
3.086172344689378511e-01
3.086172344689378511e-01
3.086172344689378511e-01
3.106212424849699172e-01
3.126252505010019833e-01
3.146292585170340494e-01
3.146292585170340494e-01
3.146292585170340494e-01
3.146292585170340494e-01
3.166332665330661156e-01
3.166332665330661156e-01
3.166332665330661156e-01
3.166332665330661156e-01
3.166332665330661156e-01
3.186372745490981817e-01
3.186372745490981817e-01
3.206412825651302478e-01
3.186372745490981817e-01
3.166332665330661156e-01
3.166332665330661156e-01
3.206412825651302478e-01
3.226452905811623140e-01
3.206412825651302478e-01
3.206412825651302478e-01
3.186372745490981817e-01
3.166332665330661156e-01
3.166332665330661156e-01
3.146292585170340494e-01
3.146292585170340494e-01
3.146292585170340494e-01
3.146292585170340494e-01
3.146292585170340494e-01
3.146292585170340494e-01
3.146292585170340494e-01
3.146292585170340494e-01
3.146292585170340494e-01
3.146292585170340494e-01
3.146292585170340494e-01
3.146292585170340494e-01
3.146292585170340494e-01
3.166332665330661156e-01
3.166332665330661156e-01
3.166332665330661156e-01
3.126252505010019833e-01
3.126252505010019833e-01
3.146292585170340494e-01
3.146292585170340494e-01
3.146292585170340494e-01
3.146292585170340494e-01
3.126252505010019833e-01
3.086172344689378511e-01
3.046092184368737743e-01
3.046092184368737743e-01
3.086172344689378511e-01
3.106212424849699172e-01
3.146292585170340494e-01
3.126252505010019833e-01
3.086172344689378511e-01
3.046092184368737743e-01
3.046092184368737743e-01
3.086172344689378511e-01
3.086172344689378511e-01
3.126252505010019833e-01
3.166332665330661156e-01
3.186372745490981817e-01
3.206412825651302478e-01
3.206412825651302478e-01
3.206412825651302478e-01
3.186372745490981817e-01
3.186372745490981817e-01
3.186372745490981817e-01
3.186372745490981817e-01
3.186372745490981817e-01
3.186372745490981817e-01
3.226452905811623140e-01
3.246492985971943801e-01
3.266533066132264462e-01
3.266533066132264462e-01
3.266533066132264462e-01
3.266533066132264462e-01
3.246492985971943801e-01
3.246492985971943801e-01
3.226452905811623140e-01
3.206412825651302478e-01
3.206412825651302478e-01
3.266533066132264462e-01
3.286573146292585124e-01
3.306613226452905785e-01
3.306613226452905785e-01
3.306613226452905785e-01
3.286573146292585124e-01
3.286573146292585124e-01
3.286573146292585124e-01
3.286573146292585124e-01
3.286573146292585124e-01
3.246492985971943801e-01
3.186372745490981817e-01
3.146292585170340494e-01
3.146292585170340494e-01
3.166332665330661156e-01
3.166332665330661156e-01
3.166332665330661156e-01
3.146292585170340494e-01
3.166332665330661156e-01
3.166332665330661156e-01
3.126252505010019833e-01
3.106212424849699172e-01
3.146292585170340494e-01
3.146292585170340494e-01
3.146292585170340494e-01
3.146292585170340494e-01
3.166332665330661156e-01
3.166332665330661156e-01
3.206412825651302478e-01
3.246492985971943801e-01
3.366733466933867769e-01
3.366733466933867769e-01
3.386773547094188430e-01
3.366733466933867769e-01
3.326653306613226446e-01
3.266533066132264462e-01
3.246492985971943801e-01
3.206412825651302478e-01
3.226452905811623140e-01
3.226452905811623140e-01
3.226452905811623140e-01
3.226452905811623140e-01
3.246492985971943801e-01
3.266533066132264462e-01
3.266533066132264462e-01
3.126252505010019833e-01
3.086172344689378511e-01
3.346693386773547108e-01
3.567134268537074382e-01
3.907815631262525069e-01
4.088176352705411021e-01
3.887775551102204408e-01
3.727454909819639117e-01
3.507014028056112398e-01
3.406813627254509091e-01
3.386773547094188430e-01
3.306613226452905785e-01
3.266533066132264462e-01
3.246492985971943801e-01
3.206412825651302478e-01
3.166332665330661156e-01
3.166332665330661156e-01
3.146292585170340494e-01
3.146292585170340494e-01
3.106212424849699172e-01
3.126252505010019833e-01
3.166332665330661156e-01
3.186372745490981817e-01
3.166332665330661156e-01
3.126252505010019833e-01
3.106212424849699172e-01
3.086172344689378511e-01
3.086172344689378511e-01
3.086172344689378511e-01
3.086172344689378511e-01
3.126252505010019833e-01
3.186372745490981817e-01
3.226452905811623140e-01
3.246492985971943801e-01
3.226452905811623140e-01
3.206412825651302478e-01
3.166332665330661156e-01
3.166332665330661156e-01
3.146292585170340494e-01
3.106212424849699172e-01
3.106212424849699172e-01
3.126252505010019833e-01
3.086172344689378511e-01
3.006012024048096420e-01
3.006012024048096420e-01
2.985971943887775759e-01
2.985971943887775759e-01
3.006012024048096420e-01
3.006012024048096420e-01
3.006012024048096420e-01
3.066132264529057849e-01
3.066132264529057849e-01
3.026052104208417082e-01
3.026052104208417082e-01
3.026052104208417082e-01
3.026052104208417082e-01
3.026052104208417082e-01
3.026052104208417082e-01
3.006012024048096420e-01
3.106212424849699172e-01
3.086172344689378511e-01
3.086172344689378511e-01
3.086172344689378511e-01
3.086172344689378511e-01
3.126252505010019833e-01
3.146292585170340494e-01
4.468937875751503030e-01
4.569138276553106337e-01
4.669338677354709644e-01
4.749498997995991734e-01
4.849699398797595040e-01
4.949899799599198347e-01
5.090180360721442421e-01
5.150300601202404405e-01
5.170340681362725066e-01
5.130260521042083743e-01
5.090180360721442421e-01
4.969939879759519008e-01
4.849699398797595040e-01
4.789579158316633056e-01
4.649298597194388982e-01
4.549098196392785676e-01
4.509018036072144353e-01
3.867735470941883746e-01
3.246492985971943801e-01
3.226452905811623140e-01
4.549098196392785676e-01
4.569138276553106337e-01
4.829659318637274379e-01
4.809619238476953718e-01
4.789579158316633056e-01
5.010020040080159776e-01
4.989979959919839669e-01
4.709418837675350966e-01
4.709418837675350966e-01
4.849699398797595040e-01
4.789579158316633056e-01
4.689378757515030305e-01
4.709418837675350966e-01
4.689378757515030305e-01
4.268537074148296417e-01
3.266533066132264462e-01
3.266533066132264462e-01
3.266533066132264462e-01
3.266533066132264462e-01
3.286573146292585124e-01
3.306613226452905785e-01
3.306613226452905785e-01
3.306613226452905785e-01
3.326653306613226446e-01
3.326653306613226446e-01
3.326653306613226446e-01
3.366733466933867769e-01
3.366733466933867769e-01
3.366733466933867769e-01
3.366733466933867769e-01
3.366733466933867769e-01
3.366733466933867769e-01
3.366733466933867769e-01
3.406813627254509091e-01
3.406813627254509091e-01
3.446893787575150414e-01
3.446893787575150414e-01
3.446893787575150414e-01
3.446893787575150414e-01
3.446893787575150414e-01
3.446893787575150414e-01
3.446893787575150414e-01
3.446893787575150414e-01
3.446893787575150414e-01
3.446893787575150414e-01
3.426853707414829753e-01
3.426853707414829753e-01
3.426853707414829753e-01
3.426853707414829753e-01
3.426853707414829753e-01
3.426853707414829753e-01
3.406813627254509091e-01
3.406813627254509091e-01
3.406813627254509091e-01
3.406813627254509091e-01
3.406813627254509091e-01
3.406813627254509091e-01
3.406813627254509091e-01
3.406813627254509091e-01
3.426853707414829753e-01
3.426853707414829753e-01
3.426853707414829753e-01
3.446893787575150414e-01
3.446893787575150414e-01
3.446893787575150414e-01
3.446893787575150414e-01
3.446893787575150414e-01
3.446893787575150414e-01
3.426853707414829753e-01
3.426853707414829753e-01
3.426853707414829753e-01
3.426853707414829753e-01
3.426853707414829753e-01
3.406813627254509091e-01
3.406813627254509091e-01
3.366733466933867769e-01
3.366733466933867769e-01
3.326653306613226446e-01
3.306613226452905785e-01
3.286573146292585124e-01
3.246492985971943801e-01
3.206412825651302478e-01
3.186372745490981817e-01
3.206412825651302478e-01
3.226452905811623140e-01
3.286573146292585124e-01
3.346693386773547108e-01
3.366733466933867769e-01
3.386773547094188430e-01
3.386773547094188430e-01
3.406813627254509091e-01
3.446893787575150414e-01
3.466933867735471075e-01
3.486973947895791737e-01
3.507014028056112398e-01
3.507014028056112398e-01
3.507014028056112398e-01
3.507014028056112398e-01
3.507014028056112398e-01
3.507014028056112398e-01
3.507014028056112398e-01
3.507014028056112398e-01
3.507014028056112398e-01
3.507014028056112398e-01
3.507014028056112398e-01
3.507014028056112398e-01
3.486973947895791737e-01
3.386773547094188430e-01
2.985971943887775759e-01
2.585170340681362533e-01
2.004008016032064188e-01
1.883767535070140220e-01
1.000000000000000000e+00
9.418837675350701932e-01
1.943887775551102204e-01
4.228456913827655095e-01
6.052104208416834163e-01
7.715430861723446831e-01
9.278557114228457303e-01
8.557114228456913496e-01
7.374749498997995589e-01
6.252505010020039666e-01
5.350701402805611018e-01
4.649298597194388982e-01
4.128256513026052343e-01
3.747494989979959779e-01
3.527054108216433059e-01
3.386773547094188430e-01
3.286573146292585124e-01
3.206412825651302478e-01
3.166332665330661156e-01
3.106212424849699172e-01
3.086172344689378511e-01
3.026052104208417082e-01
3.006012024048096420e-01
2.985971943887775759e-01
2.965931863727455098e-01
2.965931863727455098e-01
2.965931863727455098e-01
2.945891783567134437e-01
2.925851703406813775e-01
2.905811623246493114e-01
2.885771543086172453e-01
2.865731462925851791e-01
2.825651302605210469e-01
2.765531062124248485e-01
2.765531062124248485e-01
2.725450901803607162e-01
2.705410821643286501e-01
2.645290581162324517e-01
2.585170340681362533e-01
2.525050100200400549e-01
2.484969939879759504e-01
2.444889779559118181e-01
2.384769539078156197e-01
2.304609218436873830e-01
2.244488977955911846e-01
2.164328657314629201e-01
2.104208416833667217e-01
2.024048096192384849e-01
1.983967935871743526e-01
1.963927855711422865e-01
1.963927855711422865e-01
1.983967935871743526e-01
2.004008016032064188e-01
7.575150300601202202e-01
2.004008016032064188e-01
2.044088176352705510e-01
2.104208416833667217e-01
2.184368737474949862e-01
2.264529058116232507e-01
2.384769539078156197e-01
2.464929859719438843e-01
2.585170340681362533e-01
2.705410821643286501e-01
2.785571142284569146e-01
2.845691382765531130e-01
2.905811623246493114e-01
2.985971943887775759e-01
3.006012024048096420e-01
3.066132264529057849e-01
3.106212424849699172e-01
3.166332665330661156e-01
3.206412825651302478e-01
3.246492985971943801e-01
3.246492985971943801e-01
3.246492985971943801e-01
3.246492985971943801e-01
3.246492985971943801e-01
3.246492985971943801e-01
3.246492985971943801e-01
3.226452905811623140e-01
3.226452905811623140e-01
3.226452905811623140e-01
3.226452905811623140e-01
3.226452905811623140e-01
3.226452905811623140e-01
3.226452905811623140e-01
3.206412825651302478e-01
3.206412825651302478e-01
3.186372745490981817e-01
3.186372745490981817e-01
3.166332665330661156e-01
3.166332665330661156e-01
3.166332665330661156e-01
3.146292585170340494e-01
3.166332665330661156e-01
3.166332665330661156e-01
3.166332665330661156e-01
3.166332665330661156e-01
3.166332665330661156e-01
3.186372745490981817e-01
3.186372745490981817e-01
3.186372745490981817e-01
3.186372745490981817e-01
3.186372745490981817e-01
3.186372745490981817e-01
3.186372745490981817e-01
3.186372745490981817e-01
3.206412825651302478e-01
3.246492985971943801e-01
3.266533066132264462e-01
3.286573146292585124e-01
3.306613226452905785e-01
3.326653306613226446e-01
3.326653306613226446e-01
3.326653306613226446e-01
3.306613226452905785e-01
3.306613226452905785e-01
3.286573146292585124e-01
3.286573146292585124e-01
3.286573146292585124e-01
3.266533066132264462e-01
3.266533066132264462e-01
3.286573146292585124e-01
3.286573146292585124e-01
3.306613226452905785e-01
3.306613226452905785e-01
3.306613226452905785e-01
3.306613226452905785e-01
3.306613226452905785e-01
3.306613226452905785e-01
3.306613226452905785e-01
3.306613226452905785e-01
3.306613226452905785e-01
3.306613226452905785e-01
3.306613226452905785e-01
3.306613226452905785e-01
3.306613226452905785e-01
3.306613226452905785e-01
3.306613226452905785e-01
3.306613226452905785e-01
3.306613226452905785e-01
3.316633266533066116e-01
3.326653306613226446e-01
3.326653306613226446e-01
3.326653306613226446e-01
3.326653306613226446e-01
3.346693386773547108e-01
3.346693386773547108e-01
3.346693386773547108e-01
3.346693386773547108e-01
3.346693386773547108e-01
3.346693386773547108e-01
3.346693386773547108e-01
3.346693386773547108e-01
3.346693386773547108e-01
3.346693386773547108e-01
3.326653306613226446e-01
3.326653306613226446e-01
3.326653306613226446e-01
3.306613226452905785e-01
3.306613226452905785e-01
3.286573146292585124e-01
3.286573146292585124e-01
3.266533066132264462e-01
3.266533066132264462e-01
3.246492985971943801e-01
3.226452905811623140e-01
3.206412825651302478e-01
3.166332665330661156e-01
3.166332665330661156e-01
3.146292585170340494e-01
3.146292585170340494e-01
3.146292585170340494e-01
3.166332665330661156e-01
3.206412825651302478e-01
3.246492985971943801e-01
3.286573146292585124e-01
3.286573146292585124e-01
3.286573146292585124e-01
3.326653306613226446e-01
3.386773547094188430e-01
3.406813627254509091e-01
3.426853707414829753e-01
3.406813627254509091e-01
3.406813627254509091e-01
3.406813627254509091e-01
3.406813627254509091e-01
3.386773547094188430e-01
3.386773547094188430e-01
3.386773547094188430e-01
3.386773547094188430e-01
3.386773547094188430e-01
3.386773547094188430e-01
3.366733466933867769e-01
3.366733466933867769e-01
3.366733466933867769e-01
3.226452905811623140e-01
2.825651302605210469e-01
2.344689378757515152e-01
1.883767535070140220e-01
1.683366733466933884e-01
9.879759519038076032e-01
9.539078156312624790e-01
2.885771543086172453e-01
4.569138276553106337e-01
6.192384769539077682e-01
8.176352705410822042e-01
9.198396793587174658e-01
8.296593186372746009e-01
7.074148296593186780e-01
6.012024048096192841e-01
5.110220440881763082e-01
4.529058116232465014e-01
3.967935871743487053e-01
3.627254509018035811e-01
3.386773547094188430e-01
3.246492985971943801e-01
3.206412825651302478e-01
3.046092184368737743e-01
3.006012024048096420e-01
2.975951903807615428e-01
2.945891783567134437e-01
2.925851703406813775e-01
2.905811623246493114e-01
2.885771543086172453e-01
2.845691382765531130e-01
2.845691382765531130e-01
2.825651302605210469e-01
2.805611222444889807e-01
2.785571142284569146e-01
2.765531062124248485e-01
2.725450901803607162e-01
2.725450901803607162e-01
2.685370741482965840e-01
2.645290581162324517e-01
2.605210420841683194e-01
2.565130260521041872e-01
2.525050100200400549e-01
2.484969939879759504e-01
2.464929859719438843e-01
2.404809619238476859e-01
2.364729458917835536e-01
2.304609218436873830e-01
2.244488977955911846e-01
2.124248496993987878e-01
2.084168336673346555e-01
1.963927855711422865e-01
1.923847695390781543e-01
1.883767535070140220e-01
1.863727454909819559e-01
1.823647294589178236e-01
1.823647294589178236e-01
1.843687374749498897e-01
7.494989979959919557e-01
7.494989979959919557e-01
7.494989979959919557e-01
1.943887775551102204e-01
1.983967935871743526e-01
2.084168336673346555e-01
2.144288577154308539e-01
2.264529058116232507e-01
2.364729458917835536e-01
2.484969939879759504e-01
2.585170340681362533e-01
2.665330661322645178e-01
2.765531062124248485e-01
2.845691382765531130e-01
2.905811623246493114e-01
2.945891783567134437e-01
2.985971943887775759e-01
3.006012024048096420e-01
3.026052104208417082e-01
3.086172344689378511e-01
3.086172344689378511e-01
3.146292585170340494e-01
3.146292585170340494e-01
3.146292585170340494e-01
3.146292585170340494e-01
3.146292585170340494e-01
3.146292585170340494e-01
3.146292585170340494e-01
3.146292585170340494e-01
3.166332665330661156e-01
3.186372745490981817e-01
3.186372745490981817e-01
3.166332665330661156e-01
3.166332665330661156e-01
3.166332665330661156e-01
3.146292585170340494e-01
3.146292585170340494e-01
3.146292585170340494e-01
3.146292585170340494e-01
3.146292585170340494e-01
3.106212424849699172e-01
3.106212424849699172e-01
3.106212424849699172e-01
3.106212424849699172e-01
3.106212424849699172e-01
3.106212424849699172e-01
3.106212424849699172e-01
3.086172344689378511e-01
3.086172344689378511e-01
3.086172344689378511e-01
3.086172344689378511e-01
3.106212424849699172e-01
3.146292585170340494e-01
3.146292585170340494e-01
3.146292585170340494e-01
3.146292585170340494e-01
3.166332665330661156e-01
3.166332665330661156e-01
3.166332665330661156e-01
3.166332665330661156e-01
3.186372745490981817e-01
3.186372745490981817e-01
3.186372745490981817e-01
3.186372745490981817e-01
3.166332665330661156e-01
3.186372745490981817e-01
3.206412825651302478e-01
3.226452905811623140e-01
3.226452905811623140e-01
3.226452905811623140e-01
3.226452905811623140e-01
3.206412825651302478e-01
3.206412825651302478e-01
3.206412825651302478e-01
3.186372745490981817e-01
3.186372745490981817e-01
3.186372745490981817e-01
3.206412825651302478e-01
3.206412825651302478e-01
3.206412825651302478e-01
3.206412825651302478e-01
3.226452905811623140e-01
3.226452905811623140e-01
3.226452905811623140e-01
3.226452905811623140e-01
3.226452905811623140e-01
3.226452905811623140e-01
3.226452905811623140e-01
3.206412825651302478e-01
3.206412825651302478e-01
3.206412825651302478e-01
3.206412825651302478e-01
3.186372745490981817e-01
3.186372745490981817e-01
3.186372745490981817e-01
3.186372745490981817e-01
3.206412825651302478e-01
3.226452905811623140e-01
3.226452905811623140e-01
3.226452905811623140e-01
3.226452905811623140e-01
3.086172344689378511e-01
3.086172344689378511e-01
3.086172344689378511e-01
3.086172344689378511e-01
3.086172344689378511e-01
3.166332665330661156e-01
4.509018036072144353e-01
4.569138276553106337e-01
4.669338677354709644e-01
4.769539078156312395e-01
4.869739478957915702e-01
4.989979959919839669e-01
5.070140280561121759e-01
5.130260521042083743e-01
5.190380761523045727e-01
5.130260521042083743e-01
5.070140280561121759e-01
4.969939879759519008e-01
4.849699398797595040e-01
4.749498997995991734e-01
4.649298597194388982e-01
4.549098196392785676e-01
4.488977955911823692e-01
4.468937875751503030e-01
3.186372745490981817e-01
3.206412825651302478e-01
4.228456913827655095e-01
4.649298597194388982e-01
4.629258517034068321e-01
4.629258517034068321e-01
4.729458917835671072e-01
4.609218436873747660e-01
4.609218436873747660e-01
4.749498997995991734e-01
4.729458917835671072e-01
4.729458917835671072e-01
4.769539078156312395e-01
4.889779559118236363e-01
4.909819639278557024e-01
4.969939879759519008e-01
4.969939879759519008e-01
3.306613226452905785e-01
3.306613226452905785e-01
3.306613226452905785e-01
3.346693386773547108e-01
3.426853707414829753e-01
3.466933867735471075e-01
3.206412825651302478e-01
2.725450901803607162e-01
2.064128256513026172e-01
1.523046092184368872e-01
9.218436873747494487e-02
6.212424849699398760e-02
1.242484969939879752e-01
2.044088176352705510e-01
2.545090180360721210e-01
2.965931863727455098e-01
3.466933867735471075e-01
3.727454909819639117e-01
3.707414829659318456e-01
3.627254509018035811e-01
3.547094188376753721e-01
3.507014028056112398e-01
3.446893787575150414e-01
3.426853707414829753e-01
3.366733466933867769e-01
3.346693386773547108e-01
3.306613226452905785e-01
3.246492985971943801e-01
3.246492985971943801e-01
3.206412825651302478e-01
3.186372745490981817e-01
3.166332665330661156e-01
3.166332665330661156e-01
3.166332665330661156e-01
3.146292585170340494e-01
3.146292585170340494e-01
3.146292585170340494e-01
3.106212424849699172e-01
3.086172344689378511e-01
3.086172344689378511e-01
3.086172344689378511e-01
3.026052104208417082e-01
3.026052104208417082e-01
3.006012024048096420e-01
2.965931863727455098e-01
2.925851703406813775e-01
2.905811623246493114e-01
2.905811623246493114e-01
2.865731462925851791e-01
2.845691382765531130e-01
2.765531062124248485e-01
2.685370741482965840e-01
2.605210420841683194e-01
2.585170340681362533e-01
2.525050100200400549e-01
2.444889779559118181e-01
2.384769539078156197e-01
2.304609218436873830e-01
2.224448897795591185e-01
2.184368737474949862e-01
2.144288577154308539e-01
2.124248496993987878e-01
2.024048096192384849e-01
2.004008016032064188e-01
2.004008016032064188e-01
2.004008016032064188e-01
2.064128256513026172e-01
2.144288577154308539e-01
2.264529058116232507e-01
2.384769539078156197e-01
2.505010020040079888e-01
2.625250501002003856e-01
2.725450901803607162e-01
2.825651302605210469e-01
2.885771543086172453e-01
2.965931863727455098e-01
3.006012024048096420e-01
3.026052104208417082e-01
3.146292585170340494e-01
3.166332665330661156e-01
3.166332665330661156e-01
3.206412825651302478e-01
3.226452905811623140e-01
3.246492985971943801e-01
3.246492985971943801e-01
3.246492985971943801e-01
3.246492985971943801e-01
3.266533066132264462e-01
3.266533066132264462e-01
3.246492985971943801e-01
3.246492985971943801e-01
3.246492985971943801e-01
3.246492985971943801e-01
3.246492985971943801e-01
3.246492985971943801e-01
3.246492985971943801e-01
3.246492985971943801e-01
3.246492985971943801e-01
3.246492985971943801e-01
3.246492985971943801e-01
3.236472945891783470e-01
3.226452905811623140e-01
3.226452905811623140e-01
3.226452905811623140e-01
3.226452905811623140e-01
3.226452905811623140e-01
3.226452905811623140e-01
3.226452905811623140e-01
3.226452905811623140e-01
3.226452905811623140e-01
3.246492985971943801e-01
3.246492985971943801e-01
3.246492985971943801e-01
3.246492985971943801e-01
3.266533066132264462e-01
3.286573146292585124e-01
3.286573146292585124e-01
3.266533066132264462e-01
3.286573146292585124e-01
3.326653306613226446e-01
3.366733466933867769e-01
3.366733466933867769e-01
3.386773547094188430e-01
3.386773547094188430e-01
3.386773547094188430e-01
3.386773547094188430e-01
3.386773547094188430e-01
3.386773547094188430e-01
3.406813627254509091e-01
3.406813627254509091e-01
3.406813627254509091e-01
3.406813627254509091e-01
3.406813627254509091e-01
3.386773547094188430e-01
3.386773547094188430e-01
3.386773547094188430e-01
3.386773547094188430e-01
3.386773547094188430e-01
3.386773547094188430e-01
3.386773547094188430e-01
3.386773547094188430e-01
3.386773547094188430e-01
3.386773547094188430e-01
3.386773547094188430e-01
3.386773547094188430e-01
3.386773547094188430e-01
3.386773547094188430e-01
3.386773547094188430e-01
3.386773547094188430e-01
3.386773547094188430e-01
3.386773547094188430e-01
3.386773547094188430e-01
3.386773547094188430e-01
3.406813627254509091e-01
3.406813627254509091e-01
3.406813627254509091e-01
3.406813627254509091e-01
3.406813627254509091e-01
3.406813627254509091e-01
3.406813627254509091e-01
3.446893787575150414e-01
3.446893787575150414e-01
3.446893787575150414e-01
3.446893787575150414e-01
3.446893787575150414e-01
3.446893787575150414e-01
3.446893787575150414e-01
3.446893787575150414e-01
3.446893787575150414e-01
3.446893787575150414e-01
3.446893787575150414e-01
3.446893787575150414e-01
3.406813627254509091e-01
3.366733466933867769e-01
3.366733466933867769e-01
3.326653306613226446e-01
3.326653306613226446e-01
3.326653306613226446e-01
3.326653306613226446e-01
3.336673346693386777e-01
3.346693386773547108e-01
3.366733466933867769e-01
3.366733466933867769e-01
3.386773547094188430e-01
3.386773547094188430e-01
3.386773547094188430e-01
3.406813627254509091e-01
3.426853707414829753e-01
3.446893787575150414e-01
3.446893787575150414e-01
3.466933867735471075e-01
3.466933867735471075e-01
3.446893787575150414e-01
3.446893787575150414e-01
3.446893787575150414e-01
3.446893787575150414e-01
3.446893787575150414e-01
3.446893787575150414e-01
3.446893787575150414e-01
3.446893787575150414e-01
3.446893787575150414e-01
3.466933867735471075e-01
3.547094188376753721e-01
3.547094188376753721e-01
3.246492985971943801e-01
2.745490981963927823e-01
2.104208416833667217e-01
1.623246492985971901e-01
1.062124248496993939e-01
8.817635270541082648e-02
1.683366733466933884e-01
2.264529058116232507e-01
2.765531062124248485e-01
3.386773547094188430e-01
3.707414829659318456e-01
3.927855711422845730e-01
3.867735470941883746e-01
3.767535070140280440e-01
3.687374749498997795e-01
3.627254509018035811e-01
3.587174348697395043e-01
3.547094188376753721e-01
3.466933867735471075e-01
3.426853707414829753e-01
3.406813627254509091e-01
3.386773547094188430e-01
3.366733466933867769e-01
3.366733466933867769e-01
3.366733466933867769e-01
3.326653306613226446e-01
3.286573146292585124e-01
3.286573146292585124e-01
3.266533066132264462e-01
3.246492985971943801e-01
3.246492985971943801e-01
3.246492985971943801e-01
3.226452905811623140e-01
3.206412825651302478e-01
3.166332665330661156e-01
3.146292585170340494e-01
3.106212424849699172e-01
3.086172344689378511e-01
3.006012024048096420e-01
3.006012024048096420e-01
2.985971943887775759e-01
2.945891783567134437e-01
2.905811623246493114e-01
2.845691382765531130e-01
2.785571142284569146e-01
2.725450901803607162e-01
2.665330661322645178e-01
2.605210420841683194e-01
2.525050100200400549e-01
2.464929859719438843e-01
2.384769539078156197e-01
2.324649298597194491e-01
2.224448897795591185e-01
2.164328657314629201e-01
2.024048096192384849e-01
2.004008016032064188e-01
2.004008016032064188e-01
2.004008016032064188e-01
1.983967935871743526e-01
2.024048096192384849e-01
2.064128256513026172e-01
2.124248496993987878e-01
2.224448897795591185e-01
2.324649298597194491e-01
2.464929859719438843e-01
2.585170340681362533e-01
2.685370741482965840e-01
2.785571142284569146e-01
2.905811623246493114e-01
2.965931863727455098e-01
3.006012024048096420e-01
3.026052104208417082e-01
3.086172344689378511e-01
3.086172344689378511e-01
3.146292585170340494e-01
3.146292585170340494e-01
3.166332665330661156e-01
3.166332665330661156e-01
3.166332665330661156e-01
3.186372745490981817e-01
3.186372745490981817e-01
3.206412825651302478e-01
3.206412825651302478e-01
3.206412825651302478e-01
3.186372745490981817e-01
3.186372745490981817e-01
3.166332665330661156e-01
3.166332665330661156e-01
3.166332665330661156e-01
3.146292585170340494e-01
3.146292585170340494e-01
3.146292585170340494e-01
3.146292585170340494e-01
3.106212424849699172e-01
3.106212424849699172e-01
3.086172344689378511e-01
3.086172344689378511e-01
3.086172344689378511e-01
3.086172344689378511e-01
3.026052104208417082e-01
3.026052104208417082e-01
3.026052104208417082e-01
3.026052104208417082e-01
3.026052104208417082e-01
3.026052104208417082e-01
3.026052104208417082e-01
3.026052104208417082e-01
3.026052104208417082e-01
3.026052104208417082e-01
3.026052104208417082e-01
3.046092184368737743e-01
3.066132264529057849e-01
3.066132264529057849e-01
3.066132264529057849e-01
3.086172344689378511e-01
3.086172344689378511e-01
3.086172344689378511e-01
3.066132264529057849e-01
3.086172344689378511e-01
3.086172344689378511e-01
3.026052104208417082e-01
3.026052104208417082e-01
3.026052104208417082e-01
3.026052104208417082e-01
3.026052104208417082e-01
3.026052104208417082e-01
3.026052104208417082e-01
3.046092184368737743e-01
3.066132264529057849e-01
3.086172344689378511e-01
3.086172344689378511e-01
3.086172344689378511e-01
3.046092184368737743e-01
3.026052104208417082e-01
3.006012024048096420e-01
3.006012024048096420e-01
3.006012024048096420e-01
3.006012024048096420e-01
3.026052104208417082e-01
3.026052104208417082e-01
3.026052104208417082e-01
3.026052104208417082e-01
3.026052104208417082e-01
3.026052104208417082e-01
3.026052104208417082e-01
3.026052104208417082e-01
3.026052104208417082e-01
3.026052104208417082e-01
3.026052104208417082e-01
3.026052104208417082e-01
3.026052104208417082e-01
3.026052104208417082e-01
3.026052104208417082e-01
3.026052104208417082e-01
3.026052104208417082e-01
3.026052104208417082e-01
3.026052104208417082e-01
3.026052104208417082e-01
3.026052104208417082e-01
3.006012024048096420e-01
3.006012024048096420e-01
3.006012024048096420e-01
3.006012024048096420e-01
3.006012024048096420e-01
2.965931863727455098e-01
2.925851703406813775e-01
2.905811623246493114e-01
2.905811623246493114e-01
2.905811623246493114e-01
2.905811623246493114e-01
2.925851703406813775e-01
2.925851703406813775e-01
2.925851703406813775e-01
2.925851703406813775e-01
2.925851703406813775e-01
2.925851703406813775e-01
2.925851703406813775e-01
2.945891783567134437e-01
2.945891783567134437e-01
2.945891783567134437e-01
2.965931863727455098e-01
2.965931863727455098e-01
2.965931863727455098e-01
2.965931863727455098e-01
2.985971943887775759e-01
2.985971943887775759e-01
2.985971943887775759e-01
2.985971943887775759e-01
3.006012024048096420e-01
3.026052104208417082e-01
3.026052104208417082e-01
3.086172344689378511e-01
3.086172344689378511e-01
2.885771543086172453e-01
2.424849699398797520e-01
1.903807615230460881e-01
1.422845691382765565e-01
9.619238476953907713e-02
3.406813627254508953e-02
9.218436873747494487e-02
1.743486973947895868e-01
2.224448897795591185e-01
2.625250501002003856e-01
