3.981481481481481399e-01
3.981481481481481399e-01
3.963443963443963325e-01
3.945406445406445806e-01
3.927368927368927731e-01
3.909331409331409102e-01
3.891293891293891027e-01
3.873256373256372953e-01
3.855218855218854879e-01
3.837181337181337359e-01
3.819143819143819285e-01
3.801106301106301211e-01
3.783068783068783691e-01
3.765031265031264507e-01
3.746993746993746988e-01
3.728956228956228913e-01
3.710918710918710839e-01
3.692881192881192765e-01
3.674843674843675245e-01
3.656806156806157171e-01
3.638768638768639097e-01
3.620731120731120467e-01
3.602693602693602393e-01
3.584656084656084318e-01
3.566618566618566799e-01
3.548581048581048725e-01
3.530543530543530650e-01
3.512506012506012576e-01
3.494468494468493946e-01
3.476430976430975872e-01
3.458393458393458353e-01
3.440355940355940279e-01
3.422318422318422204e-01
3.404280904280904685e-01
3.386243386243386611e-01
3.368205868205868536e-01
3.350168350168350462e-01
3.332130832130831832e-01
3.314093314093313758e-01
3.296055796055796239e-01
3.278018278018278164e-01
3.259980759980760090e-01
3.241943241943242016e-01
3.223905723905724496e-01
3.205868205868205312e-01
3.187830687830687793e-01
3.169793169793169718e-01
3.151755651755651644e-01
3.133718133718133569e-01
3.115680615680616050e-01
3.097643097643097976e-01
3.079605579605579901e-01
3.061568061568061272e-01
3.043530543530543198e-01
3.025493025493025123e-01
3.007455507455507604e-01
2.989417989417989530e-01
2.971380471380471455e-01
2.953342953342953936e-01
2.935305435305434751e-01
2.917267917267917232e-01
2.899230399230399158e-01
2.881192881192881083e-01
2.863155363155363009e-01
2.845117845117845490e-01
2.827080327080327415e-01
2.809042809042809341e-01
2.791005291005291267e-01
2.772967772967772637e-01
2.754930254930254563e-01
2.736892736892737044e-01
2.718855218855218969e-01
2.700817700817700895e-01
2.682780182780182821e-01
2.664742664742664191e-01
2.646705146705146117e-01
2.628667628667628597e-01
2.610630110630110523e-01
2.592592592592592449e-01
2.145061728395061817e-01
2.145061728395061817e-01
2.083333333333333426e-01
2.160493827160493707e-02
2.160493827160493707e-02
2.160493827160493707e-02
2.160493827160493707e-02
2.160493827160493707e-02
2.160493827160493707e-02
4.537037037037037202e-01
2.160493827160493707e-02
2.160493827160493707e-02
2.160493827160493707e-02
2.160493827160493707e-02
2.160493827160493707e-02
2.160493827160493707e-02
4.537037037037037202e-01
2.160493827160493707e-02
2.160493827160493707e-02
2.160493827160493707e-02
2.160493827160493707e-02
2.160493827160493707e-02
2.160493827160493707e-02
2.160493827160493707e-02
4.537037037037037202e-01
2.160493827160493707e-02
2.160493827160493707e-02
2.160493827160493707e-02
2.160493827160493707e-02
2.160493827160493707e-02
2.160493827160493707e-02
2.160493827160493707e-02
4.537037037037037202e-01
2.160493827160493707e-02
2.160493827160493707e-02
2.160493827160493707e-02
2.160493827160493707e-02
2.160493827160493707e-02
4.537037037037037202e-01
2.114197530864197483e-01
2.175925925925925875e-01
2.175925925925925875e-01
2.500000000000000000e-01
3.966049382716049232e-01
3.966049382716049232e-01
3.966049382716049232e-01
4.027777777777777901e-01
4.027777777777777901e-01
4.027777777777777901e-01
4.027777777777777901e-01
4.027777777777777901e-01
4.027777777777777901e-01
3.966049382716049232e-01
3.966049382716049232e-01
3.966049382716049232e-01
4.074074074074073848e-01
4.104938271604938183e-01
4.089506172839506015e-01
4.058641975308642236e-01
4.012345679012345734e-01
3.981481481481481399e-01
3.966049382716049232e-01
3.950617283950617065e-01
3.950617283950617065e-01
3.950617283950617065e-01
3.950617283950617065e-01
3.935185185185185452e-01
3.935185185185185452e-01
3.935185185185185452e-01
3.919753086419753285e-01
3.919753086419753285e-01
3.919753086419753285e-01
3.919753086419753285e-01
3.904320987654321118e-01
3.858024691358024616e-01
3.811728395061728669e-01
3.765432098765432167e-01
3.765432098765432167e-01
3.750000000000000000e-01
3.750000000000000000e-01
3.750000000000000000e-01
3.750000000000000000e-01
3.750000000000000000e-01
3.734567901234567833e-01
3.734567901234567833e-01
3.750000000000000000e-01
3.765432098765432167e-01
3.765432098765432167e-01
3.827160493827160281e-01
3.842592592592592449e-01
3.888888888888888951e-01
3.904320987654321118e-01
3.919753086419753285e-01
3.904320987654321118e-01
3.919753086419753285e-01
3.935185185185185452e-01
3.935185185185185452e-01
3.888888888888888951e-01
3.873456790123456783e-01
3.842592592592592449e-01
3.780864197530864335e-01
3.472222222222222099e-01
2.947530864197530631e-01
2.314814814814814825e-01
1.743827160493827133e-01
1.095679012345679021e-01
1.358024691358024616e-01
1.898148148148148251e-01
2.438271604938271608e-01
2.978395061728394966e-01
3.333333333333333148e-01
3.518518518518518601e-01
3.595679012345678882e-01
3.595679012345678882e-01
3.595679012345678882e-01
3.641975308641975384e-01
3.657407407407407551e-01
3.703703703703703498e-01
3.703703703703703498e-01
3.719135802469135665e-01
3.719135802469135665e-01
3.703703703703703498e-01
3.703703703703703498e-01
3.688271604938271331e-01
3.657407407407407551e-01
3.611111111111111049e-01
3.564814814814814548e-01
3.549382716049382935e-01
3.549382716049382935e-01
3.518518518518518601e-01
3.487654320987654266e-01
3.487654320987654266e-01
3.487654320987654266e-01
3.456790123456789932e-01
3.410493827160493985e-01
3.379629629629629650e-01
3.364197530864197483e-01
3.348765432098765316e-01
3.333333333333333148e-01
3.302469135802469369e-01
3.271604938271605034e-01
3.225308641975308532e-01
3.163580246913580418e-01
3.086419753086419582e-01
3.009259259259259300e-01
2.947530864197530631e-01
2.885802469135802517e-01
2.824074074074073848e-01
2.731481481481481399e-01
2.669753086419753285e-01
2.592592592592592449e-01
2.530864197530864335e-01
2.469135802469135665e-01
2.422839506172839441e-01
2.361111111111111049e-01
2.330246913580246992e-01
2.283950617283950490e-01
2.283950617283950490e-01
2.283950617283950490e-01
2.330246913580246992e-01
2.391975308641975384e-01
2.469135802469135665e-01
2.561728395061728669e-01
2.669753086419753285e-01
2.762345679012345734e-01
2.824074074074073848e-01
2.885802469135802517e-01
2.932098765432099019e-01
3.009259259259259300e-01
3.024691358024691468e-01
3.055555555555555802e-01
3.086419753086419582e-01
3.117283950617283916e-01
3.163580246913580418e-01
3.163580246913580418e-01
3.163580246913580418e-01
3.163580246913580418e-01
3.163580246913580418e-01
3.163580246913580418e-01
3.163580246913580418e-01
3.194444444444444198e-01
3.194444444444444198e-01
3.194444444444444198e-01
3.163580246913580418e-01
3.163580246913580418e-01
3.163580246913580418e-01
3.179012345679012586e-01
3.194444444444444198e-01
3.225308641975308532e-01
3.271604938271605034e-01
3.271604938271605034e-01
3.271604938271605034e-01
3.287037037037037202e-01
3.287037037037037202e-01
3.287037037037037202e-01
3.287037037037037202e-01
3.287037037037037202e-01
3.287037037037037202e-01
3.279320987654321118e-01
3.271604938271605034e-01
3.287037037037037202e-01
3.317901234567900981e-01
3.333333333333333148e-01
3.395061728395061817e-01
3.395061728395061817e-01
3.410493827160493985e-01
3.410493827160493985e-01
3.410493827160493985e-01
3.395061728395061817e-01
3.395061728395061817e-01
3.395061728395061817e-01
3.395061728395061817e-01
3.395061728395061817e-01
3.395061728395061817e-01
3.395061728395061817e-01
3.410493827160493985e-01
3.410493827160493985e-01
3.395061728395061817e-01
3.395061728395061817e-01
3.379629629629629650e-01
3.379629629629629650e-01
3.364197530864197483e-01
3.364197530864197483e-01
3.364197530864197483e-01
3.348765432098765316e-01
3.348765432098765316e-01
3.333333333333333148e-01
3.333333333333333148e-01
3.333333333333333148e-01
3.333333333333333148e-01
3.317901234567900981e-01
3.317901234567900981e-01
3.302469135802469369e-01
3.302469135802469369e-01
3.302469135802469369e-01
3.287037037037037202e-01
3.271604938271605034e-01
3.240740740740740700e-01
3.179012345679012586e-01
3.117283950617283916e-01
3.101851851851851749e-01
3.132716049382716084e-01
3.132716049382716084e-01
3.163580246913580418e-01
3.148148148148148251e-01
3.148148148148148251e-01
3.132716049382716084e-01
3.117283950617283916e-01
3.117283950617283916e-01
3.086419753086419582e-01
3.055555555555555802e-01
3.040123456790123635e-01
2.978395061728394966e-01
2.947530864197530631e-01
2.901234567901234684e-01
2.870370370370370350e-01
2.870370370370370350e-01
2.870370370370370350e-01
2.870370370370370350e-01
2.870370370370370350e-01
2.870370370370370350e-01
2.870370370370370350e-01
2.916666666666666852e-01
2.978395061728394966e-01
3.009259259259259300e-01
3.070987654320987414e-01
3.086419753086419582e-01
3.101851851851851749e-01
3.132716049382716084e-01
3.132716049382716084e-01
3.117283950617283916e-01
3.117283950617283916e-01
3.101851851851851749e-01
3.086419753086419582e-01
3.086419753086419582e-01
3.086419753086419582e-01
3.055555555555555802e-01
3.024691358024691468e-01
2.824074074074073848e-01
2.283950617283950490e-01
1.712962962962963076e-01
1.388888888888888951e-01
9.182098765432098464e-01
4.938271604938271331e-02
1.188271604938271608e-01
1.913580246913580141e-01
2.330246913580246992e-01
2.500000000000000000e-01
2.746913580246913567e-01
2.839506172839506015e-01
2.854938271604938183e-01
2.839506172839506015e-01
2.870370370370370350e-01
2.885802469135802517e-01
2.932098765432099019e-01
2.947530864197530631e-01
2.947530864197530631e-01
2.932098765432099019e-01
2.916666666666666852e-01
2.916666666666666852e-01
2.916666666666666852e-01
2.916666666666666852e-01
2.901234567901234684e-01
2.885802469135802517e-01
2.854938271604938183e-01
2.808641975308642236e-01
2.793209876543210068e-01
2.793209876543210068e-01
2.793209876543210068e-01
2.793209876543210068e-01
2.793209876543210068e-01
2.793209876543210068e-01
2.777777777777777901e-01
2.762345679012345734e-01
2.731481481481481399e-01
2.700617283950617065e-01
2.654320987654321118e-01
2.592592592592592449e-01
2.515432098765432167e-01
2.500000000000000000e-01
2.453703703703703776e-01
2.438271604938271608e-01
2.422839506172839441e-01
2.407407407407407274e-01
2.345679012345678882e-01
2.299382716049382658e-01
2.237654320987654266e-01
2.145061728395061817e-01
2.114197530864197483e-01
2.006172839506172867e-01
1.975308641975308532e-01
1.913580246913580141e-01
1.898148148148148251e-01
1.882716049382716084e-01
1.882716049382716084e-01
1.882716049382716084e-01
1.882716049382716084e-01
1.898148148148148251e-01
1.898148148148148251e-01
1.944444444444444475e-01
2.021604938271605034e-01
2.114197530864197483e-01
2.206790123456790209e-01
2.253086419753086433e-01
2.283950617283950490e-01
2.314814814814814825e-01
2.330246913580246992e-01
2.391975308641975384e-01
2.438271604938271608e-01
2.500000000000000000e-01
2.530864197530864335e-01
2.561728395061728669e-01
2.592592592592592449e-01
2.592592592592592449e-01
2.608024691358024616e-01
2.608024691358024616e-01
2.623456790123456783e-01
2.638888888888888951e-01
2.638888888888888951e-01
2.638888888888888951e-01
2.638888888888888951e-01
2.638888888888888951e-01
2.654320987654321118e-01
2.685185185185185452e-01
2.716049382716049232e-01
2.746913580246913567e-01
2.762345679012345734e-01
2.777777777777777901e-01
2.808641975308642236e-01
2.808641975308642236e-01
2.808641975308642236e-01
2.808641975308642236e-01
2.808641975308642236e-01
2.808641975308642236e-01
2.808641975308642236e-01
2.808641975308642236e-01
2.808641975308642236e-01
2.808641975308642236e-01
2.808641975308642236e-01
2.808641975308642236e-01
2.854938271604938183e-01
2.885802469135802517e-01
2.932098765432099019e-01
2.916666666666666852e-01
2.901234567901234684e-01
2.870370370370370350e-01
2.885802469135802517e-01
2.916666666666666852e-01
2.947530864197530631e-01
2.947530864197530631e-01
2.947530864197530631e-01
2.947530864197530631e-01
2.947530864197530631e-01
2.947530864197530631e-01
2.947530864197530631e-01
2.947530864197530631e-01
2.947530864197530631e-01
2.947530864197530631e-01
2.947530864197530631e-01
2.962962962962962798e-01
2.962962962962962798e-01
2.947530864197530631e-01
2.947530864197530631e-01
2.932098765432099019e-01
2.932098765432099019e-01
2.932098765432099019e-01
2.932098765432099019e-01
2.916666666666666852e-01
2.916666666666666852e-01
2.901234567901234684e-01
2.901234567901234684e-01
2.901234567901234684e-01
2.932098765432099019e-01
2.932098765432099019e-01
2.962962962962962798e-01
2.978395061728394966e-01
3.009259259259259300e-01
2.993827160493827133e-01
2.993827160493827133e-01
2.962962962962962798e-01
2.962962962962962798e-01
2.947530864197530631e-01
2.932098765432099019e-01
2.932098765432099019e-01
2.916666666666666852e-01
2.916666666666666852e-01
2.947530864197530631e-01
2.947530864197530631e-01
2.962962962962962798e-01
2.947530864197530631e-01
2.932098765432099019e-01
2.916666666666666852e-01
2.901234567901234684e-01
2.901234567901234684e-01
2.885802469135802517e-01
2.870370370370370350e-01
2.885802469135802517e-01
2.885802469135802517e-01
2.854938271604938183e-01
2.824074074074073848e-01
2.777777777777777901e-01
2.731481481481481399e-01
2.700617283950617065e-01
2.685185185185185452e-01
2.654320987654321118e-01
2.577160493827160281e-01
2.546296296296296502e-01
2.530864197530864335e-01
2.592592592592592449e-01
2.669753086419753285e-01
2.716049382716049232e-01
2.746913580246913567e-01
2.808641975308642236e-01
2.824074074074073848e-01
2.870370370370370350e-01
2.947530864197530631e-01
2.962962962962962798e-01
3.009259259259259300e-01
3.009259259259259300e-01
3.009259259259259300e-01
3.024691358024691468e-01
3.040123456790123635e-01
3.055555555555555802e-01
3.055555555555555802e-01
3.055555555555555802e-01
3.040123456790123635e-01
2.993827160493827133e-01
2.824074074074073848e-01
2.345679012345678882e-01
1.790123456790123357e-01
1.327160493827160559e-01
8.333333333333332871e-02
5.709876543209876226e-02
1.126543209876543217e-01
1.975308641975308532e-01
2.361111111111111049e-01
2.654320987654321118e-01
2.916666666666666852e-01
3.024691358024691468e-01
3.055555555555555802e-01
3.086419753086419582e-01
3.086419753086419582e-01
3.117283950617283916e-01
3.132716049382716084e-01
3.179012345679012586e-01
3.194444444444444198e-01
3.225308641975308532e-01
3.225308641975308532e-01
3.225308641975308532e-01
3.209876543209876365e-01
3.179012345679012586e-01
3.132716049382716084e-01
3.070987654320987414e-01
3.055555555555555802e-01
3.040123456790123635e-01
3.040123456790123635e-01
3.040123456790123635e-01
3.040123456790123635e-01
3.040123456790123635e-01
3.024691358024691468e-01
2.993827160493827133e-01
2.932098765432099019e-01
2.885802469135802517e-01
2.839506172839506015e-01
2.824074074074073848e-01
2.808641975308642236e-01
2.808641975308642236e-01
2.793209876543210068e-01
2.777777777777777901e-01
2.746913580246913567e-01
2.731481481481481399e-01
2.669753086419753285e-01
2.654320987654321118e-01
2.569444444444444198e-01
2.484567901234567833e-01
2.469135802469135665e-01
2.391975308641975384e-01
2.330246913580246992e-01
2.253086419753086433e-01
2.206790123456790209e-01
2.145061728395061817e-01
2.098765432098765316e-01
2.067901234567901259e-01
2.021604938271605034e-01
2.021604938271605034e-01
2.037037037037036924e-01
2.083333333333333426e-01
2.129629629629629650e-01
2.222222222222222099e-01
2.592592592592592449e-01
2.592592592592592449e-01
2.592592592592592449e-01
2.592592592592592449e-01
2.592592592592592449e-01
2.592592592592592449e-01
4.089506172839506015e-01
4.058641975308642236e-01
4.058641975308642236e-01
3.858024691358024616e-01
3.919753086419753285e-01
3.842592592592592449e-01
3.858024691358024616e-01
3.919753086419753285e-01
3.919753086419753285e-01
3.981481481481481399e-01
3.935185185185185452e-01
4.043209876543210068e-01
4.027777777777777901e-01
4.058641975308642236e-01
2.623456790123456783e-01
2.654320987654321118e-01
2.716049382716049232e-01
3.179012345679012586e-01
3.641975308641975384e-01
3.719135802469135665e-01
3.811728395061728669e-01
3.919753086419753285e-01
3.981481481481481399e-01
4.058641975308642236e-01
4.135802469135802517e-01
4.228395061728394966e-01
4.197530864197530631e-01
4.151234567901234684e-01
4.089506172839506015e-01
4.012345679012345734e-01
3.888888888888888951e-01
3.842592592592592449e-01
3.750000000000000000e-01
3.703703703703703498e-01
3.672839506172839719e-01
3.641975308641975384e-01
2.546296296296296502e-01
2.577160493827160281e-01
2.592592592592592449e-01
3.657407407407407551e-01
3.935185185185185452e-01
3.935185185185185452e-01
3.935185185185185452e-01
2.592592592592592449e-01
2.623456790123456783e-01
3.425925925925926152e-01
3.425925925925926152e-01
4.228395061728394966e-01
4.228395061728394966e-01
4.228395061728394966e-01
4.228395061728394966e-01
4.228395061728394966e-01
3.425925925925926152e-01
3.425925925925926152e-01
2.592592592592592449e-01
2.608024691358024616e-01
2.608024691358024616e-01
2.608024691358024616e-01
2.577160493827160281e-01
2.515432098765432167e-01
2.515432098765432167e-01
2.484567901234567833e-01
2.500000000000000000e-01
2.500000000000000000e-01
2.515432098765432167e-01
2.500000000000000000e-01
2.500000000000000000e-01
2.500000000000000000e-01
2.500000000000000000e-01
2.484567901234567833e-01
2.484567901234567833e-01
2.484567901234567833e-01
2.484567901234567833e-01
2.469135802469135665e-01
2.469135802469135665e-01
2.484567901234567833e-01
2.530864197530864335e-01
2.546296296296296502e-01
2.546296296296296502e-01
2.500000000000000000e-01
2.469135802469135665e-01
2.453703703703703776e-01
2.484567901234567833e-01
2.530864197530864335e-01
2.546296296296296502e-01
2.546296296296296502e-01
2.530864197530864335e-01
2.530864197530864335e-01
2.500000000000000000e-01
2.500000000000000000e-01
2.530864197530864335e-01
2.530864197530864335e-01
2.530864197530864335e-01
2.515432098765432167e-01
2.515432098765432167e-01
2.515432098765432167e-01
2.515432098765432167e-01
2.484567901234567833e-01
2.469135802469135665e-01
2.422839506172839441e-01
2.407407407407407274e-01
2.438271604938271608e-01
2.469135802469135665e-01
2.469135802469135665e-01
2.484567901234567833e-01
2.484567901234567833e-01
2.484567901234567833e-01
2.500000000000000000e-01
2.500000000000000000e-01
2.515432098765432167e-01
2.515432098765432167e-01
2.515432098765432167e-01
2.515432098765432167e-01
2.469135802469135665e-01
2.438271604938271608e-01
2.299382716049382658e-01
2.268518518518518601e-01
2.206790123456790209e-01
9.830246913580247270e-01
9.120370370370370905e-01
8.888888888888888395e-01
9.166666666666666297e-01
9.614197530864198038e-01
9.830246913580247270e-01
3.194444444444444198e-01
2.978395061728394966e-01
2.793209876543210068e-01
2.716049382716049232e-01
2.669753086419753285e-01
2.592592592592592449e-01
2.546296296296296502e-01
2.484567901234567833e-01
2.469135802469135665e-01
2.469135802469135665e-01
2.515432098765432167e-01
2.546296296296296502e-01
2.608024691358024616e-01
2.577160493827160281e-01
2.561728395061728669e-01
2.530864197530864335e-01
2.530864197530864335e-01
2.530864197530864335e-01
2.484567901234567833e-01
2.469135802469135665e-01
2.500000000000000000e-01
2.500000000000000000e-01
2.515432098765432167e-01
2.515432098765432167e-01
2.515432098765432167e-01
2.530864197530864335e-01
2.530864197530864335e-01
2.530864197530864335e-01
2.546296296296296502e-01
2.592592592592592449e-01
2.592592592592592449e-01
2.608024691358024616e-01
2.638888888888888951e-01
2.638888888888888951e-01
2.638888888888888951e-01
2.608024691358024616e-01
2.577160493827160281e-01
2.530864197530864335e-01
2.530864197530864335e-01
2.530864197530864335e-01
2.546296296296296502e-01
2.546296296296296502e-01
2.577160493827160281e-01
2.592592592592592449e-01
2.577160493827160281e-01
2.592592592592592449e-01
2.608024691358024616e-01
2.608024691358024616e-01
2.654320987654321118e-01
2.669753086419753285e-01
2.669753086419753285e-01
2.685185185185185452e-01
2.685185185185185452e-01
2.700617283950617065e-01
2.685185185185185452e-01
2.700617283950617065e-01
2.716049382716049232e-01
2.685185185185185452e-01
2.669753086419753285e-01
2.669753086419753285e-01
2.685185185185185452e-01
2.685185185185185452e-01
2.685185185185185452e-01
2.685185185185185452e-01
2.669753086419753285e-01
2.669753086419753285e-01
2.669753086419753285e-01
2.669753086419753285e-01
2.669753086419753285e-01
2.669753086419753285e-01
2.669753086419753285e-01
2.669753086419753285e-01
2.669753086419753285e-01
2.669753086419753285e-01
2.669753086419753285e-01
2.654320987654321118e-01
2.638888888888888951e-01
2.638888888888888951e-01
2.592592592592592449e-01
2.592592592592592449e-01
2.592592592592592449e-01
2.577160493827160281e-01
2.577160493827160281e-01
2.546296296296296502e-01
2.546296296296296502e-01
2.546296296296296502e-01
2.530864197530864335e-01
2.530864197530864335e-01
2.577160493827160281e-01
2.608024691358024616e-01
2.608024691358024616e-01
2.530864197530864335e-01
2.530864197530864335e-01
2.530864197530864335e-01
2.530864197530864335e-01
2.546296296296296502e-01
2.546296296296296502e-01
2.546296296296296502e-01
2.546296296296296502e-01
2.546296296296296502e-01
2.546296296296296502e-01
2.546296296296296502e-01
2.546296296296296502e-01
2.561728395061728669e-01
2.592592592592592449e-01
2.592592592592592449e-01
2.577160493827160281e-01
2.577160493827160281e-01
2.546296296296296502e-01
2.546296296296296502e-01
2.577160493827160281e-01
2.577160493827160281e-01
2.561728395061728669e-01
2.546296296296296502e-01
2.561728395061728669e-01
2.561728395061728669e-01
2.577160493827160281e-01
2.577160493827160281e-01
2.592592592592592449e-01
2.592592592592592449e-01
2.592592592592592449e-01
2.592592592592592449e-01
2.592592592592592449e-01
2.592592592592592449e-01
2.592592592592592449e-01
2.592592592592592449e-01
2.592592592592592449e-01
2.608024691358024616e-01
2.608024691358024616e-01
2.608024691358024616e-01
2.623456790123456783e-01
2.638888888888888951e-01
2.669753086419753285e-01
2.700617283950617065e-01
2.716049382716049232e-01
2.716049382716049232e-01
2.685185185185185452e-01
2.685185185185185452e-01
2.669753086419753285e-01
2.654320987654321118e-01
2.638888888888888951e-01
2.654320987654321118e-01
2.654320987654321118e-01
2.654320987654321118e-01
2.608024691358024616e-01
2.561728395061728669e-01
2.561728395061728669e-01
2.592592592592592449e-01
2.592592592592592449e-01
2.608024691358024616e-01
2.608024691358024616e-01
2.608024691358024616e-01
2.608024691358024616e-01
2.623456790123456783e-01
2.654320987654321118e-01
2.654320987654321118e-01
2.654320987654321118e-01
2.685185185185185452e-01
2.669753086419753285e-01
2.561728395061728669e-01
2.484567901234567833e-01
2.422839506172839441e-01
2.391975308641975384e-01
2.484567901234567833e-01
9.629629629629629095e-01
8.981481481481481399e-01
8.564814814814815103e-01
9.089506172839506570e-01
9.537037037037037202e-01
1.000000000000000000e+00
3.379629629629629650e-01
3.055555555555555802e-01
2.901234567901234684e-01
2.824074074074073848e-01
2.746913580246913567e-01
2.700617283950617065e-01
2.669753086419753285e-01
2.654320987654321118e-01
2.654320987654321118e-01
2.638888888888888951e-01
2.669753086419753285e-01
2.669753086419753285e-01
2.700617283950617065e-01
2.685185185185185452e-01
2.685185185185185452e-01
2.669753086419753285e-01
2.669753086419753285e-01
2.654320987654321118e-01
2.654320987654321118e-01
2.654320987654321118e-01
2.654320987654321118e-01
2.638888888888888951e-01
2.638888888888888951e-01
2.638888888888888951e-01
2.592592592592592449e-01
2.623456790123456783e-01
2.623456790123456783e-01
2.638888888888888951e-01
2.669753086419753285e-01
2.685185185185185452e-01
2.669753086419753285e-01
2.654320987654321118e-01
2.638888888888888951e-01
2.608024691358024616e-01
2.592592592592592449e-01
2.592592592592592449e-01
2.592592592592592449e-01
2.577160493827160281e-01
2.592592592592592449e-01
2.592592592592592449e-01
2.592592592592592449e-01
2.608024691358024616e-01
2.561728395061728669e-01
2.577160493827160281e-01
2.592592592592592449e-01
2.623456790123456783e-01
2.669753086419753285e-01
2.654320987654321118e-01
2.638888888888888951e-01
2.654320987654321118e-01
2.685185185185185452e-01
2.700617283950617065e-01
2.685185185185185452e-01
2.669753086419753285e-01
2.662037037037037202e-01
2.654320987654321118e-01
2.654320987654321118e-01
2.669753086419753285e-01
2.654320987654321118e-01
2.654320987654321118e-01
2.638888888888888951e-01
2.638888888888888951e-01
2.638888888888888951e-01
2.638888888888888951e-01
2.638888888888888951e-01
2.638888888888888951e-01
2.638888888888888951e-01
2.638888888888888951e-01
2.613168724279835153e-01
2.587448559670781911e-01
2.561728395061728669e-01
2.561728395061728669e-01
2.561728395061728669e-01
2.577160493827160281e-01
2.577160493827160281e-01
2.577160493827160281e-01
2.577160493827160281e-01
2.577160493827160281e-01
2.577160493827160281e-01
2.546296296296296502e-01
2.530864197530864335e-01
2.530864197530864335e-01
2.546296296296296502e-01
2.561728395061728669e-01
2.592592592592592449e-01
2.623456790123456783e-01
2.608024691358024616e-01
2.623456790123456783e-01
2.638888888888888951e-01
2.685185185185185452e-01
2.685185185185185452e-01
2.700617283950617065e-01
2.700617283950617065e-01
2.700617283950617065e-01
2.700617283950617065e-01
2.669753086419753285e-01
2.669753086419753285e-01
2.700617283950617065e-01
2.700617283950617065e-01
2.685185185185185452e-01
2.685185185185185452e-01
2.669753086419753285e-01
2.654320987654321118e-01
2.654320987654321118e-01
2.654320987654321118e-01
2.654320987654321118e-01
2.654320987654321118e-01
2.654320987654321118e-01
2.669753086419753285e-01
2.685185185185185452e-01
2.685185185185185452e-01
2.685185185185185452e-01
2.685185185185185452e-01
2.685185185185185452e-01
2.685185185185185452e-01
2.685185185185185452e-01
2.669753086419753285e-01
2.638888888888888951e-01
2.638888888888888951e-01
2.669753086419753285e-01
2.685185185185185452e-01
2.716049382716049232e-01
2.716049382716049232e-01
2.716049382716049232e-01
2.716049382716049232e-01
2.716049382716049232e-01
2.685185185185185452e-01
2.685185185185185452e-01
2.685185185185185452e-01
2.731481481481481399e-01
2.716049382716049232e-01
2.685185185185185452e-01
2.669753086419753285e-01
2.638888888888888951e-01
2.638888888888888951e-01
2.638888888888888951e-01
2.638888888888888951e-01
2.608024691358024616e-01
2.592592592592592449e-01
2.561728395061728669e-01
2.561728395061728669e-01
2.530864197530864335e-01
2.530864197530864335e-01
2.561728395061728669e-01
2.561728395061728669e-01
2.561728395061728669e-01
2.577160493827160281e-01
2.623456790123456783e-01
2.638888888888888951e-01
2.623456790123456783e-01
2.592592592592592449e-01
2.592592592592592449e-01
2.592592592592592449e-01
2.577160493827160281e-01
2.469135802469135665e-01
2.438271604938271608e-01
2.391975308641975384e-01
9.737654320987654266e-01
9.027777777777777901e-01
8.580246913580247270e-01
8.580246913580247270e-01
9.151234567901234129e-01
9.675925925925925597e-01
3.564814814814814548e-01
3.132716049382716084e-01
2.947530864197530631e-01
2.854938271604938183e-01
2.777777777777777901e-01
2.762345679012345734e-01
2.716049382716049232e-01
2.669753086419753285e-01
2.654320987654321118e-01
2.654320987654321118e-01
2.608024691358024616e-01
2.561728395061728669e-01
2.530864197530864335e-01
2.515432098765432167e-01
2.530864197530864335e-01
2.561728395061728669e-01
2.608024691358024616e-01
2.638888888888888951e-01
2.638888888888888951e-01
2.669753086419753285e-01
2.685185185185185452e-01
2.716049382716049232e-01
2.716049382716049232e-01
2.700617283950617065e-01
2.700617283950617065e-01
2.685185185185185452e-01
2.654320987654321118e-01
2.669753086419753285e-01
2.669753086419753285e-01
2.592592592592592449e-01
2.592592592592592449e-01
2.592592592592592449e-01
2.592592592592592449e-01
2.623456790123456783e-01
2.654320987654321118e-01
3.657407407407407551e-01
3.703703703703703498e-01
3.796296296296296502e-01
3.842592592592592449e-01
3.904320987654321118e-01
3.996913580246913567e-01
4.104938271604938183e-01
4.151234567901234684e-01
4.212962962962962798e-01
4.212962962962962798e-01
4.182098765432099019e-01
4.058641975308642236e-01
3.966049382716049232e-01
3.950617283950617065e-01
3.796296296296296502e-01
3.719135802469135665e-01
3.657407407407407551e-01
2.037037037037036924e-01
2.021604938271605034e-01
2.083333333333333426e-01
3.688271604938271331e-01
3.688271604938271331e-01
3.688271604938271331e-01
3.688271604938271331e-01
3.688271604938271331e-01
3.703703703703703498e-01
3.672839506172839719e-01
3.842592592592592449e-01
3.842592592592592449e-01
3.827160493827160281e-01
3.888888888888888951e-01
3.811728395061728669e-01
3.827160493827160281e-01
3.811728395061728669e-01
3.456790123456789932e-01
2.638888888888888951e-01
2.638888888888888951e-01
2.654320987654321118e-01
2.669753086419753285e-01
2.654320987654321118e-01
2.638888888888888951e-01
2.638888888888888951e-01
2.638888888888888951e-01
2.638888888888888951e-01
2.623456790123456783e-01
2.608024691358024616e-01
2.592592592592592449e-01
2.592592592592592449e-01
2.592592592592592449e-01
2.592592592592592449e-01
2.592592592592592449e-01
2.592592592592592449e-01
2.608024691358024616e-01
2.623456790123456783e-01
2.638888888888888951e-01
2.638888888888888951e-01
2.638888888888888951e-01
2.638888888888888951e-01
2.638888888888888951e-01
2.654320987654321118e-01
2.669753086419753285e-01
2.654320987654321118e-01
2.654320987654321118e-01
2.654320987654321118e-01
2.669753086419753285e-01
2.669753086419753285e-01
2.669753086419753285e-01
2.685185185185185452e-01
2.685185185185185452e-01
2.685185185185185452e-01
2.685185185185185452e-01
2.685185185185185452e-01
2.669753086419753285e-01
2.669753086419753285e-01
2.669753086419753285e-01
2.669753086419753285e-01
2.654320987654321118e-01
2.638888888888888951e-01
2.638888888888888951e-01
2.638888888888888951e-01
2.638888888888888951e-01
2.654320987654321118e-01
2.669753086419753285e-01
2.685185185185185452e-01
2.685185185185185452e-01
2.685185185185185452e-01
2.685185185185185452e-01
2.685185185185185452e-01
2.685185185185185452e-01
2.685185185185185452e-01
2.685185185185185452e-01
2.685185185185185452e-01
2.685185185185185452e-01
2.685185185185185452e-01
2.669753086419753285e-01
2.654320987654321118e-01
2.654320987654321118e-01
2.638888888888888951e-01
2.638888888888888951e-01
2.638888888888888951e-01
2.638888888888888951e-01
2.608024691358024616e-01
2.592592592592592449e-01
2.592592592592592449e-01
2.592592592592592449e-01
2.623456790123456783e-01
2.638888888888888951e-01
2.638888888888888951e-01
2.654320987654321118e-01
2.654320987654321118e-01
2.669753086419753285e-01
2.669753086419753285e-01
2.685185185185185452e-01
2.685185185185185452e-01
2.716049382716049232e-01
2.731481481481481399e-01
2.746913580246913567e-01
2.746913580246913567e-01
2.731481481481481399e-01
2.731481481481481399e-01
2.746913580246913567e-01
2.777777777777777901e-01
2.777777777777777901e-01
2.777777777777777901e-01
2.777777777777777901e-01
2.777777777777777901e-01
2.762345679012345734e-01
2.762345679012345734e-01
2.746913580246913567e-01
2.638888888888888951e-01
2.345679012345678882e-01
1.990740740740740700e-01
1.836419753086419859e-01
2.700617283950617065e-01
3.858024691358024616e-01
4.861111111111111049e-01
6.404320987654320563e-01
7.561728395061728669e-01
9.938271604938271331e-01
6.728395061728394966e-01
5.987654320987654266e-01
5.169753086419752730e-01
4.351851851851851749e-01
3.641975308641975384e-01
3.240740740740740700e-01
2.993827160493827133e-01
2.808641975308642236e-01
2.716049382716049232e-01
2.669753086419753285e-01
2.654320987654321118e-01
2.592592592592592449e-01
2.592592592592592449e-01
2.577160493827160281e-01
2.561728395061728669e-01
2.546296296296296502e-01
2.546296296296296502e-01
2.546296296296296502e-01
2.530864197530864335e-01
2.530864197530864335e-01
2.530864197530864335e-01
2.484567901234567833e-01
2.484567901234567833e-01
2.453703703703703776e-01
2.453703703703703776e-01
2.438271604938271608e-01
2.422839506172839441e-01
2.422839506172839441e-01
2.422839506172839441e-01
2.391975308641975384e-01
2.376543209876543217e-01
2.345679012345678882e-01
2.330246913580246992e-01
2.268518518518518601e-01
2.222222222222222099e-01
2.191358024691358042e-01
2.098765432098765316e-01
2.052469135802469091e-01
1.990740740740740700e-01
1.944444444444444475e-01
1.882716049382716084e-01
1.851851851851851749e-01
1.790123456790123357e-01
1.790123456790123357e-01
1.774691358024691468e-01
1.759259259259259300e-01
1.759259259259259300e-01
1.774691358024691468e-01
1.774691358024691468e-01
1.790123456790123357e-01
1.820987654320987692e-01
1.851851851851851749e-01
1.898148148148148251e-01
1.975308641975308532e-01
2.037037037037036924e-01
2.114197530864197483e-01
2.191358024691358042e-01
2.283950617283950490e-01
2.361111111111111049e-01
2.422839506172839441e-01
2.500000000000000000e-01
2.561728395061728669e-01
2.608024691358024616e-01
2.654320987654321118e-01
2.700617283950617065e-01
2.716049382716049232e-01
2.716049382716049232e-01
2.716049382716049232e-01
2.716049382716049232e-01
2.716049382716049232e-01
2.716049382716049232e-01
2.716049382716049232e-01
2.700617283950617065e-01
2.700617283950617065e-01
2.700617283950617065e-01
2.700617283950617065e-01
2.700617283950617065e-01
2.700617283950617065e-01
2.700617283950617065e-01
2.700617283950617065e-01
2.700617283950617065e-01
2.700617283950617065e-01
2.700617283950617065e-01
2.700617283950617065e-01
2.700617283950617065e-01
2.700617283950617065e-01
2.700617283950617065e-01
2.700617283950617065e-01
2.700617283950617065e-01
2.700617283950617065e-01
2.700617283950617065e-01
2.700617283950617065e-01
2.685185185185185452e-01
2.685185185185185452e-01
2.685185185185185452e-01
2.685185185185185452e-01
2.685185185185185452e-01
2.685185185185185452e-01
2.685185185185185452e-01
2.716049382716049232e-01
2.716049382716049232e-01
2.716049382716049232e-01
2.716049382716049232e-01
2.716049382716049232e-01
2.716049382716049232e-01
2.731481481481481399e-01
2.731481481481481399e-01
2.731481481481481399e-01
2.731481481481481399e-01
2.746913580246913567e-01
2.746913580246913567e-01
2.777777777777777901e-01
2.793209876543210068e-01
2.793209876543210068e-01
2.824074074074073848e-01
2.839506172839506015e-01
2.854938271604938183e-01
2.854938271604938183e-01
2.854938271604938183e-01
2.854938271604938183e-01
2.854938271604938183e-01
2.854938271604938183e-01
2.854938271604938183e-01
2.854938271604938183e-01
2.854938271604938183e-01
2.854938271604938183e-01
2.870370370370370350e-01
2.870370370370370350e-01
2.870370370370370350e-01
2.870370370370370350e-01
2.870370370370370350e-01
2.870370370370370350e-01
2.870370370370370350e-01
2.870370370370370350e-01
2.854938271604938183e-01
2.885802469135802517e-01
2.870370370370370350e-01
2.870370370370370350e-01
2.870370370370370350e-01
2.870370370370370350e-01
2.854938271604938183e-01
2.854938271604938183e-01
2.854938271604938183e-01
2.854938271604938183e-01
2.839506172839506015e-01
2.839506172839506015e-01
2.839506172839506015e-01
2.839506172839506015e-01
2.870370370370370350e-01
2.870370370370370350e-01
2.854938271604938183e-01
2.839506172839506015e-01
2.839506172839506015e-01
2.824074074074073848e-01
2.808641975308642236e-01
2.808641975308642236e-01
2.777777777777777901e-01
2.746913580246913567e-01
2.716049382716049232e-01
2.700617283950617065e-01
2.700617283950617065e-01
2.700617283950617065e-01
2.700617283950617065e-01
2.700617283950617065e-01
2.685185185185185452e-01
2.685185185185185452e-01
2.685185185185185452e-01
2.685185185185185452e-01
2.685185185185185452e-01
2.685185185185185452e-01
2.700617283950617065e-01
2.700617283950617065e-01
2.700617283950617065e-01
2.700617283950617065e-01
2.700617283950617065e-01
2.700617283950617065e-01
2.716049382716049232e-01
2.746913580246913567e-01
2.793209876543210068e-01
2.808641975308642236e-01
2.808641975308642236e-01
2.808641975308642236e-01
2.808641975308642236e-01
2.777777777777777901e-01
2.638888888888888951e-01
2.330246913580246992e-01
1.944444444444444475e-01
1.959876543209876643e-01
3.086419753086419582e-01
4.135802469135802517e-01
5.185185185185184897e-01
6.712962962962962798e-01
9.907407407407406996e-01
7.175925925925925597e-01
6.388888888888888395e-01
5.648148148148147696e-01
4.876543209876543217e-01
4.120370370370370350e-01
3.441358024691357764e-01
3.148148148148148251e-01
2.932098765432099019e-01
2.793209876543210068e-01
2.731481481481481399e-01
2.669753086419753285e-01
2.654320987654321118e-01
2.623456790123456783e-01
2.592592592592592449e-01
2.592592592592592449e-01
2.592592592592592449e-01
2.577160493827160281e-01
2.546296296296296502e-01
2.546296296296296502e-01
2.546296296296296502e-01
2.546296296296296502e-01
2.515432098765432167e-01
2.515432098765432167e-01
2.515432098765432167e-01
2.500000000000000000e-01
2.469135802469135665e-01
2.453703703703703776e-01
2.438271604938271608e-01
2.422839506172839441e-01
2.391975308641975384e-01
2.376543209876543217e-01
2.314814814814814825e-01
2.283950617283950490e-01
2.253086419753086433e-01
2.206790123456790209e-01
2.160493827160493707e-01
2.098765432098765316e-01
2.067901234567901259e-01
2.006172839506172867e-01
1.975308641975308532e-01
1.929012345679012308e-01
1.898148148148148251e-01
1.851851851851851749e-01
1.820987654320987692e-01
1.759259259259259300e-01
1.743827160493827133e-01
1.743827160493827133e-01
1.743827160493827133e-01
1.759259259259259300e-01
1.774691358024691468e-01
1.790123456790123357e-01
1.805555555555555525e-01
1.820987654320987692e-01
1.851851851851851749e-01
1.929012345679012308e-01
1.990740740740740700e-01
2.067901234567901259e-01
2.145061728395061817e-01
2.222222222222222099e-01
2.299382716049382658e-01
2.391975308641975384e-01
2.469135802469135665e-01
2.546296296296296502e-01
2.592592592592592449e-01
2.654320987654321118e-01
2.669753086419753285e-01
2.685185185185185452e-01
2.716049382716049232e-01
2.716049382716049232e-01
2.746913580246913567e-01
2.777777777777777901e-01
2.777777777777777901e-01
2.777777777777777901e-01
2.777777777777777901e-01
2.777777777777777901e-01
2.777777777777777901e-01
2.777777777777777901e-01
2.777777777777777901e-01
2.777777777777777901e-01
2.777777777777777901e-01
2.777777777777777901e-01
2.793209876543210068e-01
2.793209876543210068e-01
2.793209876543210068e-01
2.808641975308642236e-01
2.808641975308642236e-01
2.808641975308642236e-01
2.808641975308642236e-01
2.808641975308642236e-01
2.808641975308642236e-01
2.808641975308642236e-01
2.808641975308642236e-01
2.808641975308642236e-01
2.808641975308642236e-01
2.824074074074073848e-01
2.839506172839506015e-01
2.839506172839506015e-01
2.854938271604938183e-01
2.854938271604938183e-01
2.885802469135802517e-01
2.901234567901234684e-01
2.901234567901234684e-01
2.916666666666666852e-01
2.932098765432099019e-01
2.932098765432099019e-01
2.947530864197530631e-01
2.947530864197530631e-01
2.947530864197530631e-01
2.947530864197530631e-01
2.962962962962962798e-01
2.962962962962962798e-01
2.962962962962962798e-01
2.962962962962962798e-01
2.978395061728394966e-01
2.978395061728394966e-01
2.978395061728394966e-01
2.962962962962962798e-01
2.962962962962962798e-01
2.962962962962962798e-01
2.962962962962962798e-01
2.962962962962962798e-01
2.962962962962962798e-01
2.962962962962962798e-01
2.962962962962962798e-01
2.962962962962962798e-01
2.962962962962962798e-01
2.962962962962962798e-01
2.962962962962962798e-01
2.947530864197530631e-01
2.932098765432099019e-01
2.932098765432099019e-01
2.916666666666666852e-01
2.916666666666666852e-01
2.901234567901234684e-01
2.901234567901234684e-01
2.885802469135802517e-01
2.870370370370370350e-01
2.870370370370370350e-01
2.885802469135802517e-01
2.901234567901234684e-01
2.901234567901234684e-01
2.901234567901234684e-01
2.901234567901234684e-01
2.901234567901234684e-01
2.901234567901234684e-01
2.901234567901234684e-01
2.901234567901234684e-01
2.901234567901234684e-01
2.901234567901234684e-01
2.901234567901234684e-01
2.885802469135802517e-01
2.885802469135802517e-01
2.870370370370370350e-01
2.854938271604938183e-01
2.592592592592592449e-01
2.592592592592592449e-01
2.592592592592592449e-01
2.592592592592592449e-01
2.592592592592592449e-01
2.654320987654321118e-01
3.688271604938271331e-01
3.719135802469135665e-01
3.796296296296296502e-01
3.888888888888888951e-01
3.966049382716049232e-01
4.058641975308642236e-01
4.120370370370370350e-01
4.182098765432099019e-01
4.197530864197530631e-01
4.166666666666666852e-01
4.120370370370370350e-01
4.027777777777777901e-01
3.935185185185185452e-01
3.858024691358024616e-01
3.780864197530864335e-01
3.703703703703703498e-01
3.672839506172839719e-01
3.657407407407407551e-01
2.978395061728394966e-01
2.962962962962962798e-01
2.854938271604938183e-01
2.623456790123456783e-01
2.283950617283950490e-01
1.975308641975308532e-01
3.873456790123456783e-01
3.672839506172839719e-01
1.388888888888888951e-01
2.191358024691358042e-01
2.453703703703703776e-01
2.839506172839506015e-01
3.348765432098765316e-01
3.981481481481481399e-01
3.996913580246913567e-01
4.027777777777777901e-01
4.027777777777777901e-01
3.024691358024691468e-01
3.009259259259259300e-01
3.009259259259259300e-01
3.009259259259259300e-01
2.993827160493827133e-01
2.993827160493827133e-01
2.993827160493827133e-01
2.978395061728394966e-01
2.978395061728394966e-01
2.962962962962962798e-01
2.962962962962962798e-01
2.947530864197530631e-01
2.947530864197530631e-01
2.932098765432099019e-01
2.932098765432099019e-01
2.916666666666666852e-01
2.916666666666666852e-01
2.901234567901234684e-01
2.901234567901234684e-01
2.885802469135802517e-01
2.870370370370370350e-01
2.870370370370370350e-01
2.854938271604938183e-01
2.839506172839506015e-01
2.808641975308642236e-01
2.762345679012345734e-01
2.731481481481481399e-01
2.700617283950617065e-01
2.654320987654321118e-01
2.592592592592592449e-01
2.546296296296296502e-01
2.500000000000000000e-01
2.438271604938271608e-01
2.376543209876543217e-01
2.314814814814814825e-01
2.253086419753086433e-01
2.175925925925925875e-01
2.114197530864197483e-01
2.052469135802469091e-01
2.006172839506172867e-01
1.959876543209876643e-01
1.944444444444444475e-01
1.944444444444444475e-01
1.975308641975308532e-01
1.975308641975308532e-01
2.006172839506172867e-01
2.052469135802469091e-01
2.098765432098765316e-01
2.191358024691358042e-01
2.253086419753086433e-01
2.345679012345678882e-01
2.422839506172839441e-01
2.484567901234567833e-01
2.546296296296296502e-01
2.623456790123456783e-01
2.669753086419753285e-01
2.700617283950617065e-01
2.700617283950617065e-01
2.700617283950617065e-01
2.731481481481481399e-01
2.746913580246913567e-01
2.762345679012345734e-01
2.762345679012345734e-01
2.762345679012345734e-01
2.762345679012345734e-01
2.762345679012345734e-01
2.762345679012345734e-01
2.762345679012345734e-01
2.762345679012345734e-01
2.762345679012345734e-01
2.762345679012345734e-01
2.762345679012345734e-01
2.762345679012345734e-01
2.762345679012345734e-01
2.777777777777777901e-01
2.777777777777777901e-01
2.777777777777777901e-01
2.777777777777777901e-01
2.777777777777777901e-01
2.777777777777777901e-01
2.777777777777777901e-01
2.777777777777777901e-01
2.777777777777777901e-01
2.777777777777777901e-01
2.777777777777777901e-01
2.793209876543210068e-01
2.808641975308642236e-01
2.808641975308642236e-01
2.793209876543210068e-01
2.793209876543210068e-01
2.793209876543210068e-01
2.777777777777777901e-01
2.777777777777777901e-01
2.777777777777777901e-01
2.777777777777777901e-01
2.762345679012345734e-01
2.762345679012345734e-01
2.762345679012345734e-01
2.762345679012345734e-01
2.762345679012345734e-01
2.762345679012345734e-01
2.762345679012345734e-01
2.762345679012345734e-01
2.793209876543210068e-01
2.808641975308642236e-01
2.793209876543210068e-01
2.793209876543210068e-01
2.777777777777777901e-01
2.777777777777777901e-01
2.777777777777777901e-01
2.762345679012345734e-01
2.762345679012345734e-01
2.746913580246913567e-01
2.746913580246913567e-01
2.746913580246913567e-01
2.746913580246913567e-01
2.746913580246913567e-01
2.746913580246913567e-01
2.746913580246913567e-01
2.746913580246913567e-01
2.746913580246913567e-01
2.746913580246913567e-01
2.746913580246913567e-01
2.746913580246913567e-01
2.746913580246913567e-01
2.746913580246913567e-01
2.731481481481481399e-01
2.716049382716049232e-01
2.716049382716049232e-01
2.716049382716049232e-01
2.700617283950617065e-01
2.700617283950617065e-01
2.685185185185185452e-01
2.685185185185185452e-01
2.669753086419753285e-01
2.654320987654321118e-01
2.654320987654321118e-01
2.638888888888888951e-01
2.638888888888888951e-01
2.638888888888888951e-01
2.584876543209876365e-01
2.530864197530864335e-01
2.515432098765432167e-01
2.515432098765432167e-01
2.530864197530864335e-01
2.577160493827160281e-01
2.608024691358024616e-01
2.654320987654321118e-01
2.685185185185185452e-01
2.700617283950617065e-01
2.716049382716049232e-01
2.716049382716049232e-01
2.731481481481481399e-01
2.731481481481481399e-01
2.731481481481481399e-01
2.731481481481481399e-01
2.731481481481481399e-01
2.716049382716049232e-01
2.716049382716049232e-01
2.716049382716049232e-01
2.731481481481481399e-01
2.716049382716049232e-01
2.685185185185185452e-01
2.345679012345678882e-01
1.990740740740740700e-01
1.836419753086419859e-01
1.280864197530864335e-01
6.172839506172839164e-03
3.086419753086419582e-02
1.574074074074074125e-01
2.037037037037036924e-01
2.314814814814814825e-01
2.777777777777777901e-01
2.885802469135802517e-01
2.854938271604938183e-01
2.824074074074073848e-01
2.808641975308642236e-01
2.793209876543210068e-01
2.793209876543210068e-01
2.777777777777777901e-01
2.762345679012345734e-01
2.762345679012345734e-01
2.746913580246913567e-01
2.746913580246913567e-01
2.746913580246913567e-01
2.731481481481481399e-01
2.731481481481481399e-01
2.716049382716049232e-01
2.700617283950617065e-01
2.700617283950617065e-01
2.685185185185185452e-01
2.669753086419753285e-01
2.654320987654321118e-01
2.654320987654321118e-01
2.638888888888888951e-01
2.638888888888888951e-01
2.623456790123456783e-01
2.592592592592592449e-01
2.592592592592592449e-01
2.592592592592592449e-01
2.546296296296296502e-01
2.530864197530864335e-01
2.500000000000000000e-01
2.484567901234567833e-01
2.469135802469135665e-01
2.422839506172839441e-01
2.361111111111111049e-01
2.330246913580246992e-01
2.268518518518518601e-01
2.206790123456790209e-01
2.145061728395061817e-01
2.067901234567901259e-01
1.990740740740740700e-01
1.929012345679012308e-01
1.851851851851851749e-01
1.805555555555555525e-01
1.759259259259259300e-01
1.743827160493827133e-01
1.712962962962963076e-01
1.712962962962963076e-01
1.712962962962963076e-01
1.728395061728394966e-01
1.790123456790123357e-01
1.867283950617283916e-01
1.944444444444444475e-01
2.037037037037036924e-01
2.129629629629629650e-01
2.206790123456790209e-01
2.283950617283950490e-01
2.345679012345678882e-01
2.407407407407407274e-01
2.453703703703703776e-01
2.484567901234567833e-01
2.530864197530864335e-01
2.530864197530864335e-01
2.546296296296296502e-01
2.561728395061728669e-01
2.592592592592592449e-01
2.592592592592592449e-01
2.592592592592592449e-01
2.592592592592592449e-01
2.608024691358024616e-01
2.608024691358024616e-01
2.608024691358024616e-01
2.623456790123456783e-01
2.638888888888888951e-01
2.638888888888888951e-01
2.638888888888888951e-01
2.623456790123456783e-01
2.608024691358024616e-01
2.608024691358024616e-01
2.592592592592592449e-01
2.592592592592592449e-01
2.592592592592592449e-01
2.592592592592592449e-01
2.608024691358024616e-01
2.623456790123456783e-01
2.638888888888888951e-01
2.638888888888888951e-01
2.638888888888888951e-01
2.654320987654321118e-01
2.654320987654321118e-01
2.654320987654321118e-01
2.669753086419753285e-01
2.685185185185185452e-01
2.700617283950617065e-01
2.716049382716049232e-01
2.731481481481481399e-01
2.731481481481481399e-01
2.746913580246913567e-01
2.746913580246913567e-01
2.746913580246913567e-01
2.746913580246913567e-01
2.762345679012345734e-01
2.762345679012345734e-01
2.762345679012345734e-01
2.746913580246913567e-01
2.746913580246913567e-01
2.746913580246913567e-01
2.746913580246913567e-01
2.731481481481481399e-01
2.731481481481481399e-01
2.731481481481481399e-01
2.731481481481481399e-01
2.716049382716049232e-01
2.716049382716049232e-01
2.716049382716049232e-01
2.731481481481481399e-01
2.762345679012345734e-01
2.777777777777777901e-01
2.762345679012345734e-01
2.762345679012345734e-01
2.762345679012345734e-01
2.762345679012345734e-01
2.762345679012345734e-01
2.746913580246913567e-01
2.746913580246913567e-01
2.739197530864197483e-01
2.731481481481481399e-01
2.731481481481481399e-01
2.716049382716049232e-01
2.685185185185185452e-01
2.669753086419753285e-01
2.654320987654321118e-01
2.654320987654321118e-01
2.638888888888888951e-01
2.638888888888888951e-01
2.638888888888888951e-01
2.638888888888888951e-01
2.623456790123456783e-01
2.608024691358024616e-01
2.623456790123456783e-01
2.638888888888888951e-01
2.669753086419753285e-01
2.685185185185185452e-01
2.716049382716049232e-01
2.746913580246913567e-01
2.777777777777777901e-01
2.777777777777777901e-01
2.793209876543210068e-01
2.808641975308642236e-01
2.824074074074073848e-01
2.824074074074073848e-01
2.824074074074073848e-01
2.824074074074073848e-01
2.824074074074073848e-01
2.839506172839506015e-01
2.824074074074073848e-01
2.700617283950617065e-01
2.283950617283950490e-01
1.944444444444444475e-01
1.743827160493827133e-01
1.064814814814814825e-01
0.000000000000000000e+00
7.098765432098765038e-02
1.805555555555555525e-01
2.160493827160493707e-01
2.700617283950617065e-01
