4.762516046213093879e-01
4.762516046213093879e-01
4.747511795008586000e-01
4.732507543804078121e-01
4.717503292599570242e-01
4.702499041395061807e-01
4.687494790190553928e-01
4.672490538986046049e-01
4.657486287781538170e-01
4.642482036577030291e-01
4.627477785372522412e-01
4.612473534168014533e-01
4.597469282963506654e-01
4.582465031758998220e-01
4.567460780554490340e-01
4.552456529349982461e-01
4.537452278145474582e-01
4.522448026940966703e-01
4.507443775736458824e-01
4.492439524531950945e-01
4.477435273327443066e-01
4.462431022122934632e-01
4.447426770918426753e-01
4.432422519713918874e-01
4.417418268509410995e-01
4.402414017304903116e-01
4.387409766100395236e-01
4.372405514895887357e-01
4.357401263691378923e-01
4.342397012486871044e-01
4.327392761282363165e-01
4.312388510077855286e-01
4.297384258873347407e-01
4.282380007668839528e-01
4.267375756464331649e-01
4.252371505259823770e-01
4.237367254055315891e-01
4.222363002850807456e-01
4.207358751646299577e-01
4.192354500441791698e-01
4.177350249237283819e-01
4.162345998032775940e-01
4.147341746828268061e-01
4.132337495623760182e-01
4.117333244419251748e-01
4.102328993214743869e-01
4.087324742010235989e-01
4.072320490805728110e-01
4.057316239601220231e-01
4.042311988396712352e-01
4.027307737192204473e-01
4.012303485987697149e-01
3.997299234783188160e-01
3.982294983578680281e-01
3.967290732374172402e-01
3.952286481169664523e-01
3.937282229965156644e-01
3.922277978760649320e-01
3.907273727556141441e-01
3.892269476351632451e-01
3.877265225147124572e-01
3.862260973942616693e-01
3.847256722738108814e-01
3.832252471533601490e-01
3.817248220329093611e-01
3.802243969124585732e-01
3.787239717920077853e-01
3.772235466715569974e-01
3.757231215511060984e-01
3.742226964306553660e-01
3.727222713102045781e-01
3.712218461897537902e-01
3.697214210693030023e-01
3.682209959488522144e-01
3.667205708284013155e-01
3.652201457079505831e-01
3.637197205874997952e-01
3.622192954670490073e-01
3.607188703465982194e-01
3.234916559691912719e-01
3.234916559691912719e-01
3.196405648267008903e-01
1.630295250320924205e-01
1.630295250320924205e-01
1.630295250320924205e-01
1.630295250320924205e-01
1.630295250320924205e-01
1.630295250320924205e-01
1.630295250320924205e-01
1.630295250320924205e-01
1.630295250320924205e-01
1.630295250320924205e-01
1.630295250320924205e-01
1.630295250320924205e-01
1.630295250320924205e-01
1.630295250320924205e-01
1.630295250320924205e-01
1.630295250320924205e-01
1.630295250320924205e-01
1.630295250320924205e-01
1.630295250320924205e-01
1.630295250320924205e-01
1.630295250320924205e-01
1.630295250320924205e-01
1.630295250320924205e-01
1.630295250320924205e-01
1.630295250320924205e-01
1.630295250320924205e-01
1.630295250320924205e-01
1.630295250320924205e-01
1.630295250320924205e-01
1.630295250320924205e-01
1.630295250320924205e-01
1.630295250320924205e-01
1.630295250320924205e-01
1.630295250320924205e-01
1.630295250320924205e-01
1.630295250320924205e-01
3.183568677792041335e-01
3.234916559691912719e-01
3.260590500641848410e-01
3.530166880616174563e-01
4.724005134788190063e-01
4.724005134788190063e-01
4.724005134788190063e-01
3.966623876765083545e-01
3.966623876765083545e-01
4.005134788189987360e-01
4.005134788189987360e-01
3.992297817715019237e-01
3.992297817715019237e-01
4.698331193838254372e-01
4.698331193838254372e-01
4.698331193838254372e-01
3.902439024390244038e-01
3.889602053915275914e-01
3.889602053915275914e-01
3.876765083440308346e-01
3.863928112965340222e-01
3.863928112965340222e-01
3.851091142490372099e-01
3.838254172015404531e-01
3.838254172015404531e-01
3.838254172015404531e-01
3.812580231065468284e-01
3.786906290115532592e-01
3.761232349165596900e-01
3.709884467265725516e-01
3.671373555840821701e-01
3.620025673940949762e-01
3.594351732991014070e-01
3.555840821566110255e-01
3.555840821566110255e-01
3.568677792041078378e-01
3.594351732991014070e-01
3.607188703465982194e-01
3.632862644415917885e-01
3.671373555840821701e-01
3.697047496790757393e-01
3.722721437740693085e-01
3.761232349165596900e-01
3.786906290115532592e-01
3.774069319640565023e-01
3.748395378690628776e-01
3.735558408215661208e-01
3.709884467265725516e-01
3.709884467265725516e-01
3.697047496790757393e-01
3.671373555840821701e-01
3.607188703465982194e-01
3.555840821566110255e-01
3.568677792041078378e-01
3.555840821566110255e-01
3.363286264441591733e-01
3.093709884467265581e-01
2.708600770218228537e-01
2.464698331193838354e-01
8.318356867779204133e-01
8.177150192554557551e-01
1.501925545571245191e-01
2.567394094993581399e-01
3.337612323491656041e-01
3.928112965340179730e-01
4.223363286264441574e-01
4.351732991014120588e-01
4.274711168164312958e-01
4.094993581514762560e-01
3.889602053915275914e-01
3.748395378690628776e-01
3.684210526315789269e-01
3.709884467265725516e-01
3.697047496790757393e-01
3.684210526315789269e-01
3.658536585365853577e-01
3.658536585365853577e-01
3.645699614890886009e-01
3.645699614890886009e-01
3.645699614890886009e-01
3.620025673940949762e-01
3.581514762516045947e-01
3.543003851091142686e-01
3.517329910141206439e-01
3.478818998716303179e-01
3.453145057766366932e-01
3.440308087291399364e-01
3.427471116816431240e-01
3.427471116816431240e-01
3.414634146341463672e-01
3.376123234916559857e-01
3.311938382541720349e-01
3.247753530166880842e-01
3.183568677792041335e-01
3.119383825417201273e-01
3.068035943517329889e-01
3.029525032092426073e-01
2.965340179717586566e-01
2.913992297817715182e-01
2.824133504492939428e-01
2.759948652118099921e-01
2.644415917843389030e-01
2.541720154043645707e-01
2.451861360718870231e-01
2.413350449293966693e-01
2.374839537869062878e-01
2.400513478818998847e-01
2.426187419768934539e-01
2.477535301668806200e-01
2.541720154043645707e-01
2.631578947368420907e-01
2.734274711168164229e-01
2.798459563543003736e-01
2.901155327342747059e-01
2.965340179717586566e-01
3.042362002567394197e-01
3.093709884467265581e-01
3.132220795892169396e-01
3.145057766367137519e-01
3.157894736842105088e-01
3.170731707317073211e-01
3.170731707317073211e-01
3.183568677792041335e-01
3.196405648267008903e-01
3.222079589216944595e-01
3.273427471116816534e-01
3.324775353016687918e-01
3.350449293966623610e-01
3.350449293966623610e-01
3.350449293966623610e-01
3.350449293966623610e-01
3.350449293966623610e-01
3.350449293966623610e-01
3.363286264441591733e-01
3.350449293966623610e-01
3.350449293966623610e-01
3.350449293966623610e-01
3.388960205391527425e-01
3.401797175866495548e-01
3.414634146341463672e-01
3.388960205391527425e-01
3.376123234916559857e-01
3.401797175866495548e-01
3.401797175866495548e-01
3.440308087291399364e-01
3.465982028241335056e-01
3.491655969191270747e-01
3.530166880616174563e-01
3.555840821566110255e-01
3.594351732991014070e-01
3.607188703465982194e-01
3.645699614890886009e-01
3.658536585365853577e-01
3.658536585365853577e-01
3.632862644415917885e-01
3.607188703465982194e-01
3.607188703465982194e-01
3.568677792041078378e-01
3.568677792041078378e-01
3.549422336328626471e-01
3.530166880616174563e-01
3.530166880616174563e-01
3.530166880616174563e-01
3.530166880616174563e-01
3.555840821566110255e-01
3.568677792041078378e-01
3.620025673940949762e-01
3.620025673940949762e-01
3.568677792041078378e-01
3.517329910141206439e-01
3.465982028241335056e-01
3.465982028241335056e-01
3.465982028241335056e-01
3.465982028241335056e-01
3.453145057766366932e-01
3.453145057766366932e-01
3.440308087291399364e-01
3.427471116816431240e-01
3.427471116816431240e-01
3.376123234916559857e-01
3.376123234916559857e-01
3.337612323491656041e-01
3.337612323491656041e-01
3.324775353016687918e-01
3.324775353016687918e-01
3.311938382541720349e-01
3.299101412066752226e-01
3.324775353016687918e-01
3.363286264441591733e-01
3.388960205391527425e-01
3.453145057766366932e-01
3.517329910141206439e-01
3.543003851091142686e-01
3.607188703465982194e-01
3.658536585365853577e-01
3.671373555840821701e-01
3.709884467265725516e-01
3.748395378690628776e-01
3.786906290115532592e-01
3.799743260590500715e-01
3.812580231065468284e-01
3.799743260590500715e-01
3.786906290115532592e-01
3.761232349165596900e-01
3.748395378690628776e-01
3.735558408215661208e-01
3.735558408215661208e-01
3.722721437740693085e-01
3.581514762516045947e-01
3.388960205391527425e-01
2.991014120667522258e-01
2.580231065468549523e-01
2.349165596919127186e-01
8.664955070603337361e-01
1.630295250320924205e-01
2.310654685494223370e-01
3.376123234916559857e-01
3.851091142490372099e-01
4.184852374839537759e-01
4.518613607188703418e-01
4.518613607188703418e-01
4.326059050064184897e-01
4.210526315789473450e-01
4.056482670089858744e-01
3.953786906290115422e-01
3.928112965340179730e-01
3.889602053915275914e-01
3.863928112965340222e-01
3.838254172015404531e-01
3.812580231065468284e-01
3.786906290115532592e-01
3.761232349165596900e-01
3.722721437740693085e-01
3.684210526315789269e-01
3.658536585365853577e-01
3.645699614890886009e-01
3.645699614890886009e-01
3.684210526315789269e-01
3.722721437740693085e-01
3.722721437740693085e-01
3.748395378690628776e-01
3.748395378690628776e-01
3.722721437740693085e-01
3.684210526315789269e-01
3.658536585365853577e-01
3.607188703465982194e-01
3.555840821566110255e-01
3.543003851091142686e-01
3.504492939666238871e-01
3.465982028241335056e-01
3.414634146341463672e-01
3.376123234916559857e-01
3.311938382541720349e-01
3.286264441591784102e-01
3.247753530166880842e-01
3.196405648267008903e-01
3.145057766367137519e-01
3.068035943517329889e-01
3.029525032092426073e-01
3.003851091142490382e-01
3.016688061617458505e-01
3.080872913992298012e-01
3.157894736842105088e-01
3.247753530166880842e-01
3.324775353016687918e-01
3.440308087291399364e-01
3.504492939666238871e-01
3.530166880616174563e-01
3.632862644415917885e-01
3.684210526315789269e-01
3.735558408215661208e-01
3.799743260590500715e-01
3.902439024390244038e-01
3.966623876765083545e-01
4.043645699614890621e-01
4.146341463414633943e-01
4.172015404364570190e-01
4.184852374839537759e-01
4.184852374839537759e-01
4.184852374839537759e-01
4.172015404364570190e-01
4.172015404364570190e-01
4.172015404364570190e-01
4.159178433889602067e-01
4.159178433889602067e-01
4.146341463414633943e-01
4.146341463414633943e-01
4.133504492939666375e-01
4.133504492939666375e-01
4.120667522464698251e-01
4.120667522464698251e-01
4.107830551989730683e-01
4.094993581514762560e-01
4.094993581514762560e-01
4.082156611039794436e-01
4.043645699614890621e-01
4.017971758664954929e-01
3.992297817715019237e-01
3.979460847240051113e-01
3.966623876765083545e-01
3.966623876765083545e-01
3.940949935815147853e-01
3.940949935815147853e-01
3.928112965340179730e-01
3.928112965340179730e-01
3.953786906290115422e-01
3.979460847240051113e-01
3.992297817715019237e-01
3.992297817715019237e-01
3.979460847240051113e-01
3.979460847240051113e-01
3.966623876765083545e-01
3.966623876765083545e-01
3.966623876765083545e-01
3.953786906290115422e-01
3.953786906290115422e-01
3.953786906290115422e-01
3.953786906290115422e-01
3.966623876765083545e-01
3.966623876765083545e-01
3.979460847240051113e-01
3.979460847240051113e-01
3.979460847240051113e-01
3.966623876765083545e-01
3.966623876765083545e-01
3.966623876765083545e-01
3.966623876765083545e-01
3.966623876765083545e-01
3.953786906290115422e-01
3.953786906290115422e-01
3.953786906290115422e-01
3.940949935815147853e-01
3.940949935815147853e-01
3.928112965340179730e-01
3.928112965340179730e-01
3.928112965340179730e-01
3.915275994865211606e-01
3.915275994865211606e-01
3.915275994865211606e-01
3.889602053915275914e-01
3.851091142490372099e-01
3.838254172015404531e-01
3.812580231065468284e-01
3.774069319640565023e-01
3.838254172015404531e-01
3.825417201540436407e-01
3.786906290115532592e-01
3.671373555840821701e-01
3.632862644415917885e-01
3.581514762516045947e-01
3.555840821566110255e-01
3.581514762516045947e-01
3.684210526315789269e-01
3.735558408215661208e-01
3.799743260590500715e-01
3.838254172015404531e-01
3.851091142490372099e-01
3.838254172015404531e-01
3.838254172015404531e-01
3.838254172015404531e-01
3.863928112965340222e-01
3.902439024390244038e-01
3.928112965340179730e-01
3.979460847240051113e-01
4.017971758664954929e-01
4.043645699614890621e-01
4.043645699614890621e-01
4.043645699614890621e-01
4.030808729139923052e-01
4.069319640564826868e-01
4.107830551989730683e-01
4.017971758664954929e-01
3.851091142490372099e-01
3.530166880616174563e-01
3.016688061617458505e-01
2.657252888318356598e-01
2.349165596919127186e-01
8.729139922978177424e-01
1.784338896020539189e-01
2.721437740693196661e-01
3.530166880616174563e-01
3.966623876765083545e-01
4.249037227214377266e-01
4.518613607188703418e-01
4.441591784338895788e-01
4.236200256739409697e-01
4.082156611039794436e-01
3.953786906290115422e-01
3.928112965340179730e-01
3.915275994865211606e-01
3.876765083440308346e-01
3.851091142490372099e-01
3.825417201540436407e-01
3.812580231065468284e-01
3.812580231065468284e-01
3.799743260590500715e-01
3.786906290115532592e-01
3.786906290115532592e-01
3.774069319640565023e-01
3.774069319640565023e-01
3.761232349165596900e-01
3.735558408215661208e-01
3.722721437740693085e-01
3.684210526315789269e-01
3.658536585365853577e-01
3.581514762516045947e-01
3.530166880616174563e-01
3.504492939666238871e-01
3.504492939666238871e-01
3.491655969191270747e-01
3.478818998716303179e-01
3.427471116816431240e-01
3.350449293966623610e-01
3.273427471116816534e-01
3.170731707317073211e-01
3.055198973042361765e-01
2.991014120667522258e-01
2.913992297817715182e-01
2.875481386392811367e-01
2.836970474967907552e-01
2.798459563543003736e-01
2.747111681643132353e-01
2.721437740693196661e-01
2.759948652118099921e-01
2.811296534017971860e-01
2.888318356867778935e-01
2.978177150192554690e-01
3.106546854942233704e-01
3.222079589216944595e-01
3.376123234916559857e-01
3.517329910141206439e-01
3.645699614890886009e-01
3.748395378690628776e-01
3.863928112965340222e-01
3.953786906290115422e-01
3.992297817715019237e-01
4.056482670089858744e-01
4.120667522464698251e-01
4.184852374839537759e-01
4.236200256739409697e-01
4.300385109114249205e-01
4.313222079589216773e-01
4.313222079589216773e-01
4.313222079589216773e-01
4.313222079589216773e-01
4.313222079589216773e-01
4.313222079589216773e-01
4.313222079589216773e-01
4.313222079589216773e-01
4.313222079589216773e-01
4.338896020539153020e-01
4.377406931964056280e-01
4.403080872913992527e-01
4.403080872913992527e-01
4.403080872913992527e-01
4.415917843388960096e-01
4.415917843388960096e-01
4.428754813863928219e-01
4.441591784338895788e-01
4.454428754813863911e-01
4.454428754813863911e-01
4.454428754813863911e-01
4.467265725288832035e-01
4.480102695763799603e-01
4.467265725288832035e-01
4.454428754813863911e-01
4.428754813863928219e-01
4.415917843388960096e-01
4.415917843388960096e-01
4.415917843388960096e-01
4.403080872913992527e-01
4.403080872913992527e-01
4.403080872913992527e-01
4.390243902439024404e-01
4.364569961489088712e-01
4.313222079589216773e-01
4.300385109114249205e-01
4.287548138639281081e-01
4.274711168164312958e-01
4.261874197689345389e-01
4.261874197689345389e-01
4.274711168164312958e-01
4.274711168164312958e-01
4.274711168164312958e-01
4.274711168164312958e-01
4.300385109114249205e-01
4.364569961489088712e-01
4.403080872913992527e-01
4.454428754813863911e-01
4.480102695763799603e-01
3.632862644415917885e-01
3.632862644415917885e-01
3.632862644415917885e-01
3.632862644415917885e-01
3.607188703465982194e-01
3.607188703465982194e-01
4.878048780487804770e-01
4.839537869062900954e-01
4.839537869062900954e-01
4.762516046213093879e-01
4.711168164313221940e-01
4.659820282413350556e-01
4.646983311938382433e-01
4.646983311938382433e-01
4.659820282413350556e-01
4.646983311938382433e-01
4.646983311938382433e-01
4.801026957637997694e-01
4.813863928112965263e-01
4.826700898587933386e-01
3.273427471116816534e-01
3.324775353016687918e-01
3.388960205391527425e-01
4.505776636713735295e-01
4.518613607188703418e-01
4.557124518613607234e-01
4.634146341463414864e-01
4.711168164313221940e-01
4.749679075738125755e-01
4.801026957637997694e-01
4.878048780487804770e-01
4.942233632862644277e-01
4.955070603337612400e-01
4.120667522464698251e-01
4.788189987163029571e-01
4.749679075738125755e-01
4.672657252888318125e-01
4.634146341463414864e-01
4.544287548138639110e-01
4.492939666238767726e-01
4.480102695763799603e-01
3.350449293966623610e-01
3.337612323491656041e-01
3.337612323491656041e-01
3.324775353016687918e-01
4.480102695763799603e-01
4.724005134788190063e-01
4.711168164313221940e-01
4.724005134788190063e-01
4.184852374839537759e-01
4.184852374839537759e-01
4.184852374839537759e-01
3.376123234916559857e-01
3.350449293966623610e-01
3.260590500641848410e-01
3.196405648267008903e-01
3.145057766367137519e-01
4.980744544287548092e-01
8.793324775353016376e-01
4.582798459563542925e-01
8.844672657252888870e-01
9.229781771501925913e-01
9.910141206675224801e-01
4.223363286264441574e-01
4.107830551989730683e-01
3.825417201540436407e-01
3.645699614890886009e-01
3.491655969191270747e-01
3.453145057766366932e-01
3.465982028241335056e-01
3.478818998716303179e-01
3.427471116816431240e-01
3.401797175866495548e-01
3.376123234916559857e-01
3.350449293966623610e-01
3.337612323491656041e-01
3.324775353016687918e-01
3.311938382541720349e-01
3.299101412066752226e-01
3.324775353016687918e-01
3.337612323491656041e-01
3.311938382541720349e-01
3.273427471116816534e-01
3.234916559691912719e-01
3.209242618741977027e-01
3.209242618741977027e-01
3.209242618741977027e-01
3.209242618741977027e-01
3.209242618741977027e-01
3.196405648267008903e-01
3.196405648267008903e-01
3.222079589216944595e-01
3.222079589216944595e-01
3.234916559691912719e-01
3.247753530166880842e-01
3.247753530166880842e-01
3.222079589216944595e-01
3.196405648267008903e-01
3.196405648267008903e-01
3.170731707317073211e-01
3.157894736842105088e-01
3.132220795892169396e-01
3.132220795892169396e-01
3.170731707317073211e-01
3.183568677792041335e-01
3.170731707317073211e-01
3.183568677792041335e-01
3.209242618741977027e-01
3.234916559691912719e-01
3.234916559691912719e-01
3.247753530166880842e-01
3.273427471116816534e-01
3.273427471116816534e-01
3.299101412066752226e-01
3.299101412066752226e-01
3.324775353016687918e-01
3.350449293966623610e-01
3.350449293966623610e-01
3.337612323491656041e-01
3.324775353016687918e-01
3.311938382541720349e-01
3.311938382541720349e-01
3.324775353016687918e-01
3.324775353016687918e-01
3.299101412066752226e-01
3.299101412066752226e-01
3.260590500641848410e-01
3.273427471116816534e-01
3.273427471116816534e-01
3.286264441591784102e-01
3.286264441591784102e-01
3.299101412066752226e-01
3.299101412066752226e-01
3.299101412066752226e-01
3.311938382541720349e-01
3.311938382541720349e-01
3.324775353016687918e-01
3.324775353016687918e-01
3.324775353016687918e-01
3.337612323491656041e-01
3.350449293966623610e-01
3.376123234916559857e-01
3.376123234916559857e-01
3.363286264441591733e-01
3.299101412066752226e-01
3.299101412066752226e-01
3.311938382541720349e-01
3.324775353016687918e-01
3.324775353016687918e-01
3.324775353016687918e-01
3.337612323491656041e-01
3.337612323491656041e-01
3.337612323491656041e-01
3.337612323491656041e-01
3.337612323491656041e-01
3.337612323491656041e-01
3.350449293966623610e-01
3.376123234916559857e-01
3.401797175866495548e-01
3.427471116816431240e-01
3.465982028241335056e-01
3.491655969191270747e-01
3.478818998716303179e-01
3.414634146341463672e-01
3.363286264441591733e-01
3.337612323491656041e-01
3.324775353016687918e-01
3.363286264441591733e-01
3.376123234916559857e-01
3.401797175866495548e-01
3.401797175866495548e-01
3.414634146341463672e-01
3.414634146341463672e-01
3.414634146341463672e-01
3.414634146341463672e-01
3.414634146341463672e-01
3.427471116816431240e-01
3.414634146341463672e-01
3.401797175866495548e-01
3.440308087291399364e-01
3.478818998716303179e-01
3.504492939666238871e-01
3.581514762516045947e-01
3.581514762516045947e-01
3.530166880616174563e-01
3.517329910141206439e-01
3.504492939666238871e-01
3.504492939666238871e-01
3.504492939666238871e-01
3.517329910141206439e-01
3.530166880616174563e-01
3.530166880616174563e-01
3.555840821566110255e-01
3.632862644415917885e-01
3.671373555840821701e-01
3.658536585365853577e-01
3.632862644415917885e-01
3.632862644415917885e-01
3.671373555840821701e-01
3.684210526315789269e-01
3.684210526315789269e-01
3.658536585365853577e-01
3.658536585365853577e-01
3.658536585365853577e-01
3.658536585365853577e-01
3.645699614890886009e-01
3.645699614890886009e-01
3.645699614890886009e-01
3.645699614890886009e-01
3.658536585365853577e-01
3.658536585365853577e-01
3.684210526315789269e-01
3.684210526315789269e-01
3.709884467265725516e-01
3.709884467265725516e-01
3.697047496790757393e-01
3.671373555840821701e-01
3.658536585365853577e-01
3.645699614890886009e-01
3.645699614890886009e-01
3.620025673940949762e-01
3.530166880616174563e-01
3.491655969191270747e-01
3.427471116816431240e-01
3.363286264441591733e-01
3.388960205391527425e-01
9.396662387676508743e-01
8.613607188703465978e-01
4.826700898587933386e-01
8.292682926829267887e-01
8.973042362002567884e-01
9.473684210526315264e-01
4.736842105263157632e-01
4.364569961489088712e-01
4.056482670089858744e-01
3.876765083440308346e-01
3.748395378690628776e-01
3.632862644415917885e-01
3.620025673940949762e-01
3.645699614890886009e-01
3.645699614890886009e-01
3.658536585365853577e-01
3.684210526315789269e-01
3.684210526315789269e-01
3.697047496790757393e-01
3.684210526315789269e-01
3.697047496790757393e-01
3.709884467265725516e-01
3.722721437740693085e-01
3.735558408215661208e-01
3.748395378690628776e-01
3.748395378690628776e-01
3.735558408215661208e-01
3.735558408215661208e-01
3.709884467265725516e-01
3.722721437740693085e-01
3.722721437740693085e-01
3.748395378690628776e-01
3.761232349165596900e-01
3.735558408215661208e-01
3.709884467265725516e-01
3.709884467265725516e-01
3.709884467265725516e-01
3.684210526315789269e-01
3.671373555840821701e-01
3.620025673940949762e-01
3.607188703465982194e-01
3.581514762516045947e-01
3.568677792041078378e-01
3.555840821566110255e-01
3.517329910141206439e-01
6.777920410783054850e-01
9.974326059050063753e-01
6.765083440308087281e-01
3.620025673940949762e-01
9.961489088575096185e-01
1.000000000000000000e+00
6.816431322207958665e-01
3.568677792041078378e-01
3.568677792041078378e-01
3.568677792041078378e-01
3.645699614890886009e-01
3.645699614890886009e-01
3.645699614890886009e-01
3.645699614890886009e-01
3.658536585365853577e-01
3.671373555840821701e-01
3.684210526315789269e-01
3.697047496790757393e-01
3.697047496790757393e-01
3.697047496790757393e-01
3.697047496790757393e-01
3.697047496790757393e-01
3.697047496790757393e-01
3.709884467265725516e-01
3.709884467265725516e-01
3.735558408215661208e-01
3.735558408215661208e-01
3.735558408215661208e-01
3.722721437740693085e-01
3.709884467265725516e-01
3.709884467265725516e-01
3.709884467265725516e-01
3.697047496790757393e-01
3.697047496790757393e-01
3.697047496790757393e-01
3.697047496790757393e-01
3.697047496790757393e-01
3.684210526315789269e-01
3.684210526315789269e-01
3.684210526315789269e-01
3.684210526315789269e-01
3.671373555840821701e-01
3.658536585365853577e-01
3.658536585365853577e-01
3.671373555840821701e-01
3.671373555840821701e-01
3.697047496790757393e-01
3.671373555840821701e-01
3.684210526315789269e-01
3.697047496790757393e-01
3.722721437740693085e-01
3.761232349165596900e-01
3.761232349165596900e-01
3.748395378690628776e-01
3.761232349165596900e-01
3.786906290115532592e-01
3.774069319640565023e-01
3.774069319640565023e-01
3.774069319640565023e-01
3.774069319640565023e-01
3.774069319640565023e-01
3.786906290115532592e-01
3.786906290115532592e-01
3.838254172015404531e-01
3.838254172015404531e-01
3.838254172015404531e-01
3.838254172015404531e-01
3.851091142490372099e-01
3.851091142490372099e-01
3.851091142490372099e-01
3.863928112965340222e-01
3.863928112965340222e-01
3.863928112965340222e-01
3.863928112965340222e-01
3.863928112965340222e-01
3.863928112965340222e-01
3.876765083440308346e-01
3.902439024390244038e-01
3.902439024390244038e-01
3.928112965340179730e-01
3.928112965340179730e-01
3.915275994865211606e-01
3.902439024390244038e-01
3.902439024390244038e-01
3.915275994865211606e-01
3.915275994865211606e-01
3.902439024390244038e-01
3.889602053915275914e-01
3.889602053915275914e-01
3.928112965340179730e-01
3.966623876765083545e-01
7.008985879332477742e-01
7.008985879332477742e-01
3.940949935815147853e-01
3.889602053915275914e-01
3.863928112965340222e-01
3.851091142490372099e-01
3.863928112965340222e-01
3.902439024390244038e-01
3.928112965340179730e-01
3.966623876765083545e-01
3.979460847240051113e-01
3.966623876765083545e-01
3.966623876765083545e-01
3.979460847240051113e-01
3.992297817715019237e-01
4.030808729139923052e-01
4.030808729139923052e-01
4.030808729139923052e-01
4.017971758664954929e-01
3.979460847240051113e-01
3.953786906290115422e-01
3.876765083440308346e-01
9.948652118100128616e-01
9.794608472400513355e-01
9.448010269576380127e-01
8.793324775353016376e-01
7.907573812580230843e-01
5.275994865211810492e-01
7.355584082156610970e-01
8.048780487804878536e-01
8.818998716302952623e-01
9.114249037227214467e-01
5.109114249037227662e-01
4.569961489088575357e-01
4.287548138639281081e-01
4.107830551989730683e-01
4.094993581514762560e-01
4.120667522464698251e-01
4.146341463414633943e-01
4.146341463414633943e-01
4.069319640564826868e-01
4.056482670089858744e-01
4.056482670089858744e-01
4.069319640564826868e-01
7.047496790757381557e-01
7.047496790757381557e-01
7.047496790757381557e-01
7.047496790757381557e-01
4.069319640564826868e-01
4.069319640564826868e-01
4.069319640564826868e-01
7.047496790757381557e-01
7.034659820282412879e-01
7.021822849807445310e-01
1.000000000000000000e+00
7.008985879332477742e-01
9.910141206675224801e-01
9.884467265725288554e-01
9.820282413350449602e-01
9.756097560975609539e-01
9.717586649550705724e-01
9.614890885750962957e-01
9.550706033376122894e-01
9.486521181001283942e-01
9.409499358151476311e-01
9.332477535301668681e-01
9.216944801026957235e-01
9.178433889602053419e-01
9.075738125802310652e-01
8.998716302952503021e-01
8.947368421052631637e-01
8.883183568677791575e-01
8.818998716302952623e-01
8.818998716302952623e-01
6.521181001283696821e-01
6.534017971758665499e-01
6.559691912708600636e-01
6.585365853658536883e-01
4.274711168164312958e-01
6.636713735558408267e-01
6.675224646983312082e-01
9.024390243902439268e-01
9.101412066752246899e-01
9.191270860077022098e-01
9.242618741976893482e-01
9.306803594351733544e-01
9.383825417201540064e-01
9.460847240051347695e-01
9.537869062901155326e-01
6.931964056482670111e-01
9.640564826700898093e-01
9.717586649550705724e-01
6.983311938382541495e-01
6.983311938382541495e-01
5.616174582798459936e-01
4.249037227214377266e-01
6.983311938382541495e-01
6.983311938382541495e-01
4.287548138639281081e-01
4.287548138639281081e-01
6.983311938382541495e-01
6.970474967907573927e-01
4.249037227214377266e-01
6.970474967907573927e-01
6.970474967907573927e-01
4.261874197689345389e-01
4.326059050064184897e-01
4.326059050064184897e-01
4.274711168164312958e-01
6.983311938382541495e-01
4.223363286264441574e-01
4.223363286264441574e-01
6.983311938382541495e-01
6.983311938382541495e-01
6.983311938382541495e-01
4.197689345314505882e-01
4.261874197689345389e-01
6.983311938382541495e-01
4.274711168164312958e-01
4.300385109114249205e-01
6.983311938382541495e-01
4.300385109114249205e-01
6.996148908857510174e-01
4.274711168164312958e-01
9.717586649550705724e-01
4.249037227214377266e-01
9.743260590500641971e-01
9.768934531450578218e-01
6.996148908857510174e-01
4.261874197689345389e-01
3.658536585365853577e-01
3.697047496790757393e-01
3.671373555840821701e-01
3.607188703465982194e-01
3.632862644415917885e-01
3.645699614890886009e-01
4.518613607188703418e-01
4.557124518613607234e-01
4.621309370988446741e-01
4.672657252888318125e-01
4.736842105263157632e-01
4.801026957637997694e-01
4.890885750962772893e-01
4.929396662387676709e-01
4.942233632862644277e-01
4.916559691912708585e-01
4.890885750962772893e-01
4.801026957637997694e-01
4.724005134788190063e-01
4.672657252888318125e-01
4.582798459563542925e-01
4.518613607188703418e-01
4.069319640564826868e-01
4.043645699614890621e-01
4.069319640564826868e-01
4.082156611039794436e-01
4.544287548138639110e-01
4.544287548138639110e-01
4.531450577663671542e-01
4.711168164313221940e-01
4.531450577663671542e-01
4.685494223363286248e-01
4.813863928112965263e-01
4.801026957637997694e-01
4.762516046213093879e-01
4.634146341463414864e-01
4.698331193838254372e-01
4.621309370988446741e-01
4.634146341463414864e-01
4.030808729139923052e-01
3.632862644415917885e-01
3.234916559691912719e-01
3.042362002567394197e-01
9.435173299101412558e-01
8.921694480102695390e-01
3.093709884467265581e-01
4.557124518613607234e-01
5.481386392811296027e-01
5.905006418485237996e-01
6.842105263157894912e-01
7.021822849807445310e-01
6.765083440308087281e-01
6.341463414634146423e-01
5.827984595635430365e-01
5.250320924261874245e-01
4.762516046213093879e-01
4.377406931964056280e-01
4.082156611039794436e-01
3.979460847240051113e-01
3.966623876765083545e-01
3.940949935815147853e-01
3.940949935815147853e-01
3.928112965340179730e-01
3.915275994865211606e-01
3.889602053915275914e-01
3.876765083440308346e-01
3.863928112965340222e-01
3.863928112965340222e-01
3.851091142490372099e-01
3.838254172015404531e-01
3.825417201540436407e-01
3.812580231065468284e-01
3.786906290115532592e-01
3.786906290115532592e-01
3.761232349165596900e-01
3.748395378690628776e-01
3.709884467265725516e-01
3.671373555840821701e-01
3.632862644415917885e-01
3.530166880616174563e-01
3.491655969191270747e-01
3.427471116816431240e-01
3.376123234916559857e-01
9.768934531450578218e-01
9.640564826700898093e-01
9.525032092426187758e-01
9.409499358151476311e-01
9.332477535301668681e-01
6.123234916559692209e-01
6.148908857509627346e-01
2.991014120667522258e-01
9.383825417201540064e-01
9.460847240051347695e-01
9.550706033376122894e-01
9.691912708600770587e-01
9.820282413350449602e-01
6.675224646983312082e-01
3.478818998716303179e-01
3.504492939666238871e-01
3.632862644415917885e-01
3.697047496790757393e-01
3.774069319640565023e-01
3.838254172015404531e-01
3.902439024390244038e-01
3.966623876765083545e-01
3.992297817715019237e-01
4.017971758664954929e-01
4.043645699614890621e-01
4.043645699614890621e-01
4.069319640564826868e-01
4.082156611039794436e-01
4.082156611039794436e-01
4.082156611039794436e-01
4.069319640564826868e-01
4.056482670089858744e-01
4.056482670089858744e-01
4.043645699614890621e-01
4.030808729139923052e-01
4.030808729139923052e-01
4.017971758664954929e-01
4.017971758664954929e-01
4.005134788189987360e-01
3.992297817715019237e-01
3.966623876765083545e-01
3.966623876765083545e-01
3.953786906290115422e-01
3.953786906290115422e-01
3.940949935815147853e-01
3.940949935815147853e-01
3.940949935815147853e-01
3.940949935815147853e-01
3.940949935815147853e-01
3.953786906290115422e-01
3.953786906290115422e-01
3.953786906290115422e-01
3.953786906290115422e-01
3.966623876765083545e-01
3.966623876765083545e-01
3.979460847240051113e-01
3.979460847240051113e-01
3.992297817715019237e-01
4.017971758664954929e-01
4.017971758664954929e-01
4.030808729139923052e-01
4.030808729139923052e-01
4.030808729139923052e-01
4.030808729139923052e-01
4.043645699614890621e-01
4.043645699614890621e-01
4.056482670089858744e-01
4.069319640564826868e-01
4.069319640564826868e-01
4.082156611039794436e-01
4.094993581514762560e-01
4.107830551989730683e-01
4.107830551989730683e-01
4.107830551989730683e-01
4.107830551989730683e-01
4.107830551989730683e-01
4.107830551989730683e-01
4.107830551989730683e-01
4.094993581514762560e-01
4.082156611039794436e-01
4.082156611039794436e-01
4.082156611039794436e-01
4.069319640564826868e-01
4.069319640564826868e-01
4.056482670089858744e-01
4.043645699614890621e-01
4.043645699614890621e-01
4.056482670089858744e-01
4.056482670089858744e-01
4.056482670089858744e-01
4.056482670089858744e-01
4.069319640564826868e-01
4.069319640564826868e-01
4.069319640564826868e-01
4.069319640564826868e-01
4.082156611039794436e-01
4.107830551989730683e-01
4.146341463414633943e-01
4.146341463414633943e-01
4.146341463414633943e-01
4.146341463414633943e-01
4.146341463414633943e-01
4.133504492939666375e-01
4.133504492939666375e-01
4.133504492939666375e-01
4.133504492939666375e-01
4.133504492939666375e-01
4.133504492939666375e-01
4.120667522464698251e-01
4.120667522464698251e-01
4.082156611039794436e-01
3.889602053915275914e-01
3.491655969191270747e-01
3.157894736842105088e-01
2.901155327342747059e-01
9.139922978177150714e-01
2.682926829268292845e-01
2.836970474967907552e-01
5.044929396662387600e-01
5.750962772785622734e-01
6.392811296534017806e-01
7.291399229781772018e-01
7.278562259306803339e-01
6.854942233632862481e-01
6.354300385109113991e-01
5.738125802310655166e-01
5.096277278562258983e-01
4.595635430038511049e-01
4.249037227214377266e-01
3.966623876765083545e-01
3.915275994865211606e-01
3.902439024390244038e-01
3.876765083440308346e-01
3.851091142490372099e-01
3.838254172015404531e-01
3.812580231065468284e-01
3.812580231065468284e-01
3.786906290115532592e-01
3.786906290115532592e-01
3.761232349165596900e-01
3.735558408215661208e-01
3.709884467265725516e-01
3.684210526315789269e-01
3.658536585365853577e-01
3.658536585365853577e-01
3.620025673940949762e-01
3.594351732991014070e-01
3.543003851091142686e-01
3.504492939666238871e-01
3.453145057766366932e-01
3.376123234916559857e-01
3.299101412066752226e-01
6.585365853658536883e-01
9.768934531450578218e-01
9.614890885750962957e-01
9.460847240051347695e-01
9.332477535301668681e-01
9.255455712451861050e-01
9.152759948652118283e-01
9.101412066752246899e-01
9.050064184852374405e-01
2.631578947368420907e-01
2.682926829268292845e-01
5.930680359435173132e-01
9.165596919127085851e-01
9.242618741976893482e-01
9.370988446726572496e-01
9.486521181001283942e-01
9.666238767650834340e-01
9.794608472400513355e-01
3.350449293966623610e-01
3.350449293966623610e-01
3.414634146341463672e-01
3.491655969191270747e-01
3.530166880616174563e-01
3.607188703465982194e-01
3.658536585365853577e-01
3.684210526315789269e-01
3.722721437740693085e-01
3.748395378690628776e-01
3.761232349165596900e-01
3.774069319640565023e-01
3.774069319640565023e-01
3.786906290115532592e-01
3.799743260590500715e-01
3.786906290115532592e-01
3.786906290115532592e-01
3.786906290115532592e-01
3.774069319640565023e-01
3.774069319640565023e-01
3.761232349165596900e-01
3.761232349165596900e-01
3.748395378690628776e-01
3.748395378690628776e-01
3.748395378690628776e-01
3.748395378690628776e-01
3.754813863928113116e-01
3.761232349165596900e-01
3.761232349165596900e-01
3.761232349165596900e-01
3.761232349165596900e-01
3.761232349165596900e-01
3.774069319640565023e-01
3.774069319640565023e-01
3.774069319640565023e-01
3.774069319640565023e-01
3.786906290115532592e-01
3.786906290115532592e-01
3.786906290115532592e-01
3.812580231065468284e-01
3.838254172015404531e-01
3.851091142490372099e-01
3.851091142490372099e-01
3.851091142490372099e-01
3.851091142490372099e-01
3.851091142490372099e-01
3.851091142490372099e-01
3.851091142490372099e-01
3.851091142490372099e-01
3.851091142490372099e-01
3.851091142490372099e-01
3.851091142490372099e-01
3.851091142490372099e-01
3.851091142490372099e-01
3.863928112965340222e-01
3.863928112965340222e-01
3.876765083440308346e-01
3.876765083440308346e-01
3.876765083440308346e-01
3.876765083440308346e-01
3.876765083440308346e-01
3.863928112965340222e-01
3.863928112965340222e-01
3.863928112965340222e-01
3.863928112965340222e-01
3.851091142490372099e-01
3.838254172015404531e-01
3.838254172015404531e-01
3.838254172015404531e-01
3.812580231065468284e-01
3.799743260590500715e-01
3.799743260590500715e-01
3.799743260590500715e-01
3.799743260590500715e-01
3.799743260590500715e-01
3.799743260590500715e-01
3.812580231065468284e-01
3.825417201540436407e-01
3.825417201540436407e-01
3.825417201540436407e-01
3.876765083440308346e-01
3.889602053915275914e-01
3.979460847240051113e-01
4.005134788189987360e-01
4.043645699614890621e-01
4.043645699614890621e-01
4.043645699614890621e-01
4.043645699614890621e-01
4.043645699614890621e-01
4.043645699614890621e-01
4.043645699614890621e-01
4.043645699614890621e-01
4.043645699614890621e-01
4.043645699614890621e-01
4.043645699614890621e-01
4.030808729139923052e-01
4.005134788189987360e-01
3.735558408215661208e-01
3.311938382541720349e-01
3.068035943517329889e-01
2.759948652118099921e-01
9.024390243902439268e-01
2.580231065468549523e-01
3.376123234916559857e-01
5.070603337612323847e-01
6.187419768934531161e-01
6.495507060333761684e-01
7.573812580231065184e-01
7.419768934531451032e-01
6.931964056482670111e-01
6.354300385109113991e-01
5.661103979460847535e-01
4.993581514762516216e-01
4.582798459563542925e-01
4.210526315789473450e-01
3.953786906290115422e-01
3.902439024390244038e-01
3.863928112965340222e-01
3.825417201540436407e-01
3.786906290115532592e-01
3.735558408215661208e-01
3.684210526315789269e-01
3.658536585365853577e-01
3.620025673940949762e-01
3.594351732991014070e-01
3.555840821566110255e-01
3.517329910141206439e-01
3.504492939666238871e-01
3.504492939666238871e-01
3.504492939666238871e-01
3.453145057766366932e-01
3.427471116816431240e-01
3.376123234916559857e-01
3.299101412066752226e-01
3.247753530166880842e-01
3.209242618741977027e-01
3.196405648267008903e-01
9.807445442875480923e-01
9.653401797175866772e-01
9.422336328626443880e-01
9.268292682926829729e-01
9.127086007702182036e-01
8.973042362002567884e-01
8.883183568677791575e-01
8.831835686777920191e-01
8.767650834403081239e-01
8.716302952503208745e-01
5.481386392811296027e-01
5.507060333761232274e-01
8.741976893453144992e-01
8.818998716302952623e-01
8.960205391527599206e-01
9.088575096277278220e-01
9.242618741976893482e-01
9.435173299101412558e-01
9.666238767650834340e-01
9.794608472400513355e-01
3.222079589216944595e-01
3.222079589216944595e-01
3.299101412066752226e-01
3.363286264441591733e-01
3.427471116816431240e-01
3.478818998716303179e-01
3.543003851091142686e-01
3.581514762516045947e-01
3.620025673940949762e-01
3.658536585365853577e-01
3.671373555840821701e-01
3.709884467265725516e-01
3.709884467265725516e-01
3.722721437740693085e-01
3.735558408215661208e-01
3.735558408215661208e-01
3.722721437740693085e-01
3.722721437740693085e-01
3.709884467265725516e-01
3.697047496790757393e-01
3.658536585365853577e-01
3.645699614890886009e-01
3.620025673940949762e-01
3.620025673940949762e-01
3.620025673940949762e-01
3.620025673940949762e-01
3.620025673940949762e-01
3.620025673940949762e-01
3.607188703465982194e-01
3.607188703465982194e-01
3.607188703465982194e-01
3.607188703465982194e-01
3.607188703465982194e-01
3.620025673940949762e-01
3.658536585365853577e-01
3.658536585365853577e-01
3.684210526315789269e-01
3.697047496790757393e-01
3.709884467265725516e-01
3.709884467265725516e-01
3.722721437740693085e-01
3.722721437740693085e-01
3.735558408215661208e-01
3.735558408215661208e-01
3.735558408215661208e-01
3.735558408215661208e-01
3.761232349165596900e-01
3.774069319640565023e-01
3.774069319640565023e-01
3.774069319640565023e-01
3.774069319640565023e-01
3.774069319640565023e-01
3.799743260590500715e-01
3.812580231065468284e-01
3.825417201540436407e-01
3.838254172015404531e-01
3.863928112965340222e-01
3.863928112965340222e-01
3.876765083440308346e-01
3.876765083440308346e-01
3.876765083440308346e-01
3.889602053915275914e-01
3.889602053915275914e-01
3.889602053915275914e-01
3.889602053915275914e-01
3.889602053915275914e-01
3.889602053915275914e-01
3.889602053915275914e-01
3.889602053915275914e-01
3.889602053915275914e-01
3.889602053915275914e-01
3.876765083440308346e-01
3.876765083440308346e-01
3.876765083440308346e-01
3.876765083440308346e-01
3.876765083440308346e-01
3.863928112965340222e-01
3.863928112965340222e-01
3.851091142490372099e-01
3.838254172015404531e-01
3.825417201540436407e-01
3.825417201540436407e-01
3.607188703465982194e-01
3.607188703465982194e-01
3.607188703465982194e-01
3.607188703465982194e-01
3.607188703465982194e-01
3.658536585365853577e-01
4.518613607188703418e-01
4.557124518613607234e-01
4.621309370988446741e-01
4.685494223363286248e-01
4.724005134788190063e-01
4.813863928112965263e-01
4.878048780487804770e-01
4.903722721437740462e-01
4.942233632862644277e-01
4.916559691912708585e-01
4.878048780487804770e-01
4.788189987163029571e-01
4.736842105263157632e-01
4.659820282413350556e-01
4.582798459563542925e-01
4.505776636713735295e-01
4.043645699614890621e-01
3.889602053915275914e-01
3.209242618741977027e-01
2.926829268292682751e-01
2.349165596919127186e-01
1.270860077021822854e-01
4.531450577663671542e-01
1.964056482670089865e-01
3.324775353016687918e-01
3.607188703465982194e-01
4.377406931964056280e-01
0.000000000000000000e+00
5.160462130937099046e-01
5.006418485237483784e-01
4.531450577663671542e-01
4.403080872913992527e-01
4.608472400513478617e-01
4.801026957637997694e-01
4.813863928112965263e-01
3.966623876765083545e-01
3.940949935815147853e-01
3.940949935815147853e-01
3.915275994865211606e-01
3.889602053915275914e-01
3.851091142490372099e-01
3.838254172015404531e-01
3.812580231065468284e-01
3.799743260590500715e-01
3.786906290115532592e-01
3.748395378690628776e-01
3.722721437740693085e-01
3.709884467265725516e-01
3.697047496790757393e-01
3.684210526315789269e-01
3.671373555840821701e-01
3.607188703465982194e-01
3.543003851091142686e-01
3.491655969191270747e-01
3.427471116816431240e-01
3.363286264441591733e-01
3.299101412066752226e-01
3.183568677792041335e-01
3.093709884467265581e-01
2.991014120667522258e-01
2.888318356867778935e-01
2.747111681643132353e-01
2.682926829268292845e-01
2.618741976893453338e-01
2.580231065468549523e-01
6.238767650834402545e-01
6.213093709884467408e-01
6.213093709884467408e-01
6.251604621309371224e-01
2.580231065468549523e-01
2.657252888318356598e-01
2.747111681643132353e-01
2.811296534017971860e-01
2.926829268292682751e-01
3.068035943517329889e-01
3.170731707317073211e-01
3.311938382541720349e-01
3.414634146341463672e-01
3.504492939666238871e-01
3.581514762516045947e-01
3.697047496790757393e-01
3.709884467265725516e-01
3.748395378690628776e-01
3.748395378690628776e-01
3.774069319640565023e-01
3.786906290115532592e-01
3.799743260590500715e-01
3.812580231065468284e-01
3.838254172015404531e-01
3.838254172015404531e-01
3.838254172015404531e-01
3.838254172015404531e-01
3.838254172015404531e-01
3.838254172015404531e-01
3.838254172015404531e-01
3.838254172015404531e-01
3.825417201540436407e-01
3.838254172015404531e-01
3.838254172015404531e-01
3.838254172015404531e-01
3.825417201540436407e-01
3.825417201540436407e-01
3.825417201540436407e-01
3.825417201540436407e-01
3.825417201540436407e-01
3.812580231065468284e-01
3.812580231065468284e-01
3.812580231065468284e-01
3.812580231065468284e-01
3.812580231065468284e-01
3.812580231065468284e-01
3.838254172015404531e-01
3.838254172015404531e-01
3.838254172015404531e-01
3.825417201540436407e-01
3.825417201540436407e-01
3.825417201540436407e-01
3.825417201540436407e-01
3.825417201540436407e-01
3.825417201540436407e-01
3.825417201540436407e-01
3.825417201540436407e-01
3.825417201540436407e-01
3.812580231065468284e-01
3.799743260590500715e-01
3.799743260590500715e-01
3.786906290115532592e-01
3.786906290115532592e-01
3.774069319640565023e-01
3.761232349165596900e-01
3.761232349165596900e-01
3.761232349165596900e-01
3.748395378690628776e-01
3.748395378690628776e-01
3.748395378690628776e-01
3.735558408215661208e-01
3.722721437740693085e-01
3.722721437740693085e-01
3.722721437740693085e-01
3.709884467265725516e-01
3.697047496790757393e-01
3.671373555840821701e-01
3.658536585365853577e-01
3.620025673940949762e-01
3.607188703465982194e-01
3.555840821566110255e-01
3.543003851091142686e-01
3.504492939666238871e-01
3.478818998716303179e-01
3.453145057766366932e-01
3.465982028241335056e-01
3.478818998716303179e-01
3.504492939666238871e-01
3.530166880616174563e-01
3.530166880616174563e-01
3.555840821566110255e-01
3.568677792041078378e-01
3.568677792041078378e-01
3.594351732991014070e-01
3.607188703465982194e-01
3.607188703465982194e-01
3.620025673940949762e-01
3.632862644415917885e-01
3.645699614890886009e-01
3.645699614890886009e-01
3.645699614890886009e-01
3.658536585365853577e-01
3.658536585365853577e-01
3.709884467265725516e-01
3.748395378690628776e-01
3.774069319640565023e-01
3.478818998716303179e-01
3.093709884467265581e-01
2.785622593068036168e-01
2.336328626444159062e-01
8.729139922978176869e-02
2.567394094993581677e-02
1.078305519897304193e-01
2.811296534017971860e-01
3.748395378690628776e-01
4.043645699614890621e-01
5.186136071887034182e-01
5.096277278562258983e-01
4.801026957637997694e-01
4.480102695763799603e-01
4.223363286264441574e-01
4.005134788189987360e-01
3.889602053915275914e-01
3.851091142490372099e-01
3.825417201540436407e-01
3.774069319640565023e-01
3.748395378690628776e-01
3.709884467265725516e-01
3.709884467265725516e-01
3.684210526315789269e-01
3.684210526315789269e-01
3.658536585365853577e-01
3.658536585365853577e-01
3.632862644415917885e-01
3.594351732991014070e-01
3.555840821566110255e-01
3.543003851091142686e-01
3.517329910141206439e-01
3.465982028241335056e-01
3.427471116816431240e-01
3.376123234916559857e-01
3.350449293966623610e-01
3.299101412066752226e-01
3.247753530166880842e-01
3.157894736842105088e-01
3.080872913992298012e-01
3.003851091142490382e-01
2.913992297817715182e-01
2.811296534017971860e-01
2.734274711168164229e-01
2.682926829268292845e-01
2.580231065468549523e-01
2.528883183568677584e-01
2.413350449293966693e-01
2.297817715019255524e-01
9.717586649550705724e-01
5.956354300385109379e-01
9.717586649550705724e-01
6.020539152759948331e-01
2.374839537869062878e-01
2.516046213093710016e-01
2.644415917843389030e-01
2.734274711168164229e-01
2.785622593068036168e-01
2.913992297817715182e-01
3.055198973042361765e-01
3.132220795892169396e-01
3.234916559691912719e-01
3.299101412066752226e-01
3.350449293966623610e-01
3.388960205391527425e-01
3.427471116816431240e-01
3.465982028241335056e-01
3.478818998716303179e-01
3.504492939666238871e-01
3.517329910141206439e-01
3.530166880616174563e-01
3.555840821566110255e-01
3.555840821566110255e-01
3.568677792041078378e-01
3.607188703465982194e-01
3.607188703465982194e-01
3.607188703465982194e-01
3.607188703465982194e-01
3.607188703465982194e-01
3.620025673940949762e-01
3.620025673940949762e-01
3.628583654257595548e-01
3.637141634574240223e-01
3.645699614890886009e-01
3.645699614890886009e-01
3.645699614890886009e-01
3.658536585365853577e-01
3.658536585365853577e-01
3.658536585365853577e-01
3.581514762516045947e-01
3.543003851091142686e-01
3.530166880616174563e-01
3.504492939666238871e-01
3.504492939666238871e-01
3.478818998716303179e-01
3.478818998716303179e-01
3.478818998716303179e-01
3.478818998716303179e-01
3.478818998716303179e-01
3.478818998716303179e-01
3.478818998716303179e-01
3.478818998716303179e-01
3.478818998716303179e-01
3.465982028241335056e-01
3.453145057766366932e-01
3.427471116816431240e-01
3.427471116816431240e-01
3.427471116816431240e-01
3.427471116816431240e-01
3.427471116816431240e-01
3.440308087291399364e-01
3.440308087291399364e-01
3.440308087291399364e-01
3.453145057766366932e-01
3.453145057766366932e-01
3.453145057766366932e-01
3.465982028241335056e-01
3.453145057766366932e-01
3.453145057766366932e-01
3.427471116816431240e-01
3.401797175866495548e-01
3.376123234916559857e-01
3.376123234916559857e-01
3.337612323491656041e-01
3.311938382541720349e-01
3.299101412066752226e-01
3.273427471116816534e-01
3.260590500641848410e-01
3.222079589216944595e-01
3.209242618741977027e-01
3.209242618741977027e-01
3.234916559691912719e-01
3.286264441591784102e-01
3.311938382541720349e-01
3.324775353016687918e-01
3.350449293966623610e-01
3.350449293966623610e-01
3.363286264441591733e-01
3.363286264441591733e-01
3.376123234916559857e-01
3.376123234916559857e-01
3.376123234916559857e-01
3.376123234916559857e-01
3.388960205391527425e-01
3.388960205391527425e-01
3.401797175866495548e-01
3.427471116816431240e-01
3.491655969191270747e-01
3.504492939666238871e-01
3.286264441591784102e-01
3.016688061617458505e-01
2.785622593068036168e-01
2.374839537869062878e-01
1.399229781771501868e-01
8.985879332477535522e-03
4.056482670089858744e-01
2.310654685494223370e-01
3.401797175866495548e-01
3.786906290115532592e-01
4.865211810012837201e-01
4.801026957637997694e-01
4.531450577663671542e-01
4.107830551989730683e-01
3.863928112965340222e-01
3.620025673940949762e-01
3.453145057766366932e-01
3.388960205391527425e-01
3.350449293966623610e-01
3.337612323491656041e-01
3.324775353016687918e-01
3.299101412066752226e-01
3.273427471116816534e-01
3.260590500641848410e-01
3.260590500641848410e-01
3.247753530166880842e-01
3.234916559691912719e-01
3.196405648267008903e-01
3.157894736842105088e-01
3.119383825417201273e-01
3.106546854942233704e-01
3.068035943517329889e-01
3.068035943517329889e-01
3.042362002567394197e-01
3.016688061617458505e-01
2.965340179717586566e-01
2.913992297817715182e-01
2.849807445442875675e-01
2.785622593068036168e-01
2.747111681643132353e-01
2.682926829268292845e-01
2.657252888318356598e-01
2.503209242618741892e-01
2.400513478818998847e-01
2.310654685494223370e-01
2.220795892169447894e-01
5.763799743260590303e-01
9.306803594351733544e-01
1.912708600770218204e-01
1.784338896020539189e-01
1.732991014120667528e-01
9.255455712451861050e-01
1.784338896020539189e-01
1.925545571245186049e-01
2.015404364569961526e-01
2.156611039794608387e-01
2.259306803594351709e-01
2.413350449293966693e-01
2.554557124518613831e-01
2.657252888318356598e-01
2.734274711168164229e-01
2.798459563543003736e-01
2.849807445442875675e-01
2.926829268292682751e-01
2.991014120667522258e-01
3.042362002567394197e-01
3.080872913992298012e-01
3.106546854942233704e-01
3.132220795892169396e-01
3.145057766367137519e-01
3.145057766367137519e-01
3.157894736842105088e-01
3.170731707317073211e-01
3.170731707317073211e-01
3.183568677792041335e-01
3.183568677792041335e-01
3.183568677792041335e-01
3.183568677792041335e-01
3.183568677792041335e-01
3.183568677792041335e-01
3.183568677792041335e-01
3.183568677792041335e-01
3.183568677792041335e-01
3.170731707317073211e-01
3.170731707317073211e-01
3.183568677792041335e-01
3.183568677792041335e-01
3.183568677792041335e-01
3.183568677792041335e-01
3.183568677792041335e-01
3.183568677792041335e-01
3.183568677792041335e-01
3.183568677792041335e-01
3.183568677792041335e-01
3.183568677792041335e-01
3.183568677792041335e-01
3.196405648267008903e-01
3.196405648267008903e-01
3.196405648267008903e-01
3.196405648267008903e-01
3.196405648267008903e-01
3.196405648267008903e-01
3.196405648267008903e-01
3.196405648267008903e-01
3.196405648267008903e-01
3.183568677792041335e-01
3.170731707317073211e-01
3.157894736842105088e-01
3.157894736842105088e-01
3.157894736842105088e-01
3.170731707317073211e-01
3.170731707317073211e-01
3.170731707317073211e-01
3.170731707317073211e-01
3.183568677792041335e-01
3.183568677792041335e-01
3.170731707317073211e-01
3.145057766367137519e-01
3.119383825417201273e-01
3.068035943517329889e-01
3.016688061617458505e-01
3.003851091142490382e-01
2.991014120667522258e-01
3.016688061617458505e-01
3.016688061617458505e-01
3.042362002567394197e-01
3.042362002567394197e-01
3.068035943517329889e-01
3.080872913992298012e-01
3.106546854942233704e-01
3.132220795892169396e-01
3.170731707317073211e-01
3.196405648267008903e-01
3.196405648267008903e-01
3.196405648267008903e-01
3.183568677792041335e-01
3.183568677792041335e-01
3.196405648267008903e-01
3.196405648267008903e-01
3.196405648267008903e-01
3.273427471116816534e-01
3.311938382541720349e-01
3.093709884467265581e-01
2.888318356867778935e-01
2.631578947368420907e-01
2.079589216944801033e-01
1.258023106546855008e-01
