0.000000000000000000e+00
0.000000000000000000e+00
8.081846211342653616e-03
1.616369242268530723e-02
2.424553863402775788e-02
3.232738484537041324e-02
4.040923105671306859e-02
4.849107726805571700e-02
5.657292347939837235e-02
6.465476969074082647e-02
7.273661590208348182e-02
8.081846211342613717e-02
8.890030832476879252e-02
9.698215453611143400e-02
1.050640007474538951e-01
1.131458469587965365e-01
1.212276931701391919e-01
1.293095393814818472e-01
1.373913855928245165e-01
1.454732318041669636e-01
1.535550780155096051e-01
1.616369242268522743e-01
1.697187704381949158e-01
1.778006166495375850e-01
1.858824628608800322e-01
1.939643090722226737e-01
2.020461552835653152e-01
2.101280014949079844e-01
2.182098477062506259e-01
2.262916939175930731e-01
2.343735401289357423e-01
2.424553863402783838e-01
2.505372325516210252e-01
2.586190787629636945e-01
2.667009249743061416e-01
2.747827711856488109e-01
2.828646173969914801e-01
2.909464636083340938e-01
2.990283098196767630e-01
3.071101560310192102e-01
3.151920022423621015e-01
3.232738484537045487e-01
3.313556946650471624e-01
3.394375408763898316e-01
3.475193870877322788e-01
3.556012332990751701e-01
3.636830795104176173e-01
3.717649257217600645e-01
3.798467719331029002e-01
3.879286181444453474e-01
3.960104643557881832e-01
4.040923105671306303e-01
4.121741567784735216e-01
4.202560029898159688e-01
4.283378492011584160e-01
4.364196954125012518e-01
4.445015416238436989e-01
4.525833878351861461e-01
4.606652340465290374e-01
4.687470802578714846e-01
4.768289264692143203e-01
4.849107726805567675e-01
4.929926188918996588e-01
5.010744651032420505e-01
5.091563113145844977e-01
5.172381575259273889e-01
5.253200037372698361e-01
5.334018499486122833e-01
5.414836961599551746e-01
5.495655423712976217e-01
5.576473885826405130e-01
5.657292347939829602e-01
5.738110810053257405e-01
5.818929272166681876e-01
5.899747734280106348e-01
5.980566196393535261e-01
6.061384658506959733e-01
6.142203120620384205e-01
6.223021582733813117e-01
3.417266187050359560e-01
3.381294964028777050e-01
3.345323741007193985e-01
5.755395683453237710e-02
5.755395683453237710e-02
5.755395683453237710e-02
5.755395683453237710e-02
5.755395683453237710e-02
5.755395683453237710e-02
5.755395683453237710e-02
5.755395683453237710e-02
5.755395683453237710e-02
5.755395683453237710e-02
5.755395683453237710e-02
5.755395683453237710e-02
5.755395683453237710e-02
5.755395683453237710e-02
5.755395683453237710e-02
5.755395683453237710e-02
5.755395683453237710e-02
5.755395683453237710e-02
5.755395683453237710e-02
5.755395683453237710e-02
5.755395683453237710e-02
5.755395683453237710e-02
5.755395683453237710e-02
5.755395683453237710e-02
5.755395683453237710e-02
5.755395683453237710e-02
5.755395683453237710e-02
5.755395683453237710e-02
5.755395683453237710e-02
5.755395683453237710e-02
5.755395683453237710e-02
5.755395683453237710e-02
5.755395683453237710e-02
5.755395683453237710e-02
5.755395683453237710e-02
5.755395683453237710e-02
3.345323741007193985e-01
3.381294964028777050e-01
3.489208633093525136e-01
6.079136690647481966e-01
9.244604316546762846e-01
9.280575539568345356e-01
9.316546762589927866e-01
6.906474820143885252e-01
6.834532374100719121e-01
6.834532374100719121e-01
6.798561151079136611e-01
6.834532374100719121e-01
6.906474820143885252e-01
6.942446043165467762e-01
6.834532374100719121e-01
6.762589928057554101e-01
6.618705035971222950e-01
6.510791366906474309e-01
6.438848920863309289e-01
6.474820143884891799e-01
6.438848920863309289e-01
6.294964028776978138e-01
6.258992805755395628e-01
6.258992805755395628e-01
6.294964028776978138e-01
6.438848920863309289e-01
6.654676258992805460e-01
7.014388489208632782e-01
7.086330935251798913e-01
7.122302158273381423e-01
7.122302158273381423e-01
7.122302158273381423e-01
7.086330935251798913e-01
7.014388489208632782e-01
6.870503597122301631e-01
7.014388489208632782e-01
7.086330935251798913e-01
7.158273381294963933e-01
7.230215827338128953e-01
7.266187050359712574e-01
7.194244604316546443e-01
6.654676258992805460e-01
5.719424460431654644e-01
5.143884892086331151e-01
3.992805755395683609e-01
3.705035971223021307e-01
4.316546762589927866e-01
4.928057553956834425e-01
5.863309352517985795e-01
6.438848920863309289e-01
6.654676258992805460e-01
6.870503597122301631e-01
7.050359712230215292e-01
7.014388489208632782e-01
6.870503597122301631e-01
7.122302158273381423e-01
7.194244604316546443e-01
7.122302158273381423e-01
6.978417266187050272e-01
7.230215827338128953e-01
7.338129496402877594e-01
7.302158273381295084e-01
7.158273381294963933e-01
7.086330935251798913e-01
7.014388489208632782e-01
6.978417266187050272e-01
7.050359712230215292e-01
7.230215827338128953e-01
7.086330935251798913e-01
6.798561151079136611e-01
6.870503597122301631e-01
7.050359712230215292e-01
6.978417266187050272e-01
6.978417266187050272e-01
6.978417266187050272e-01
7.050359712230215292e-01
7.086330935251798913e-01
7.086330935251798913e-01
7.122302158273381423e-01
7.122302158273381423e-01
7.014388489208632782e-01
6.978417266187050272e-01
6.906474820143885252e-01
6.798561151079136611e-01
6.546762589928057929e-01
6.582733812949640440e-01
6.582733812949640440e-01
6.942446043165467762e-01
6.978417266187050272e-01
6.870503597122301631e-01
6.870503597122301631e-01
6.762589928057554101e-01
6.510791366906474309e-01
6.366906474820144268e-01
6.366906474820144268e-01
6.402877697841726778e-01
6.258992805755395628e-01
6.187050359712230607e-01
6.115107913669064477e-01
6.187050359712230607e-01
6.223021582733813117e-01
6.151079136690646987e-01
6.151079136690646987e-01
6.330935251798560648e-01
6.366906474820144268e-01
6.438848920863309289e-01
6.510791366906474309e-01
6.510791366906474309e-01
6.546762589928057929e-01
6.654676258992805460e-01
6.654676258992805460e-01
6.798561151079136611e-01
6.834532374100719121e-01
7.014388489208632782e-01
7.194244604316546443e-01
7.194244604316546443e-01
7.194244604316546443e-01
7.230215827338128953e-01
7.266187050359712574e-01
7.338129496402877594e-01
7.338129496402877594e-01
7.266187050359712574e-01
7.194244604316546443e-01
7.194244604316546443e-01
7.266187050359712574e-01
7.338129496402877594e-01
7.338129496402877594e-01
7.302158273381295084e-01
7.266187050359712574e-01
7.230215827338128953e-01
7.374100719424460104e-01
7.338129496402877594e-01
7.158273381294963933e-01
7.194244604316546443e-01
7.158273381294963933e-01
7.158273381294963933e-01
7.122302158273381423e-01
7.014388489208632782e-01
7.050359712230215292e-01
7.158273381294963933e-01
7.302158273381295084e-01
7.230215827338128953e-01
7.050359712230215292e-01
7.086330935251798913e-01
7.122302158273381423e-01
7.086330935251798913e-01
7.050359712230215292e-01
6.978417266187050272e-01
6.906474820143885252e-01
7.050359712230215292e-01
7.122302158273381423e-01
7.122302158273381423e-01
7.050359712230215292e-01
7.158273381294963933e-01
7.158273381294963933e-01
7.194244604316546443e-01
7.122302158273381423e-01
7.050359712230215292e-01
7.122302158273381423e-01
7.194244604316546443e-01
7.194244604316546443e-01
7.194244604316546443e-01
7.122302158273381423e-01
7.050359712230215292e-01
7.122302158273381423e-01
7.158273381294963933e-01
7.230215827338128953e-01
7.230215827338128953e-01
7.194244604316546443e-01
7.194244604316546443e-01
7.194244604316546443e-01
7.194244604316546443e-01
7.194244604316546443e-01
7.158273381294963933e-01
7.158273381294963933e-01
7.122302158273381423e-01
7.122302158273381423e-01
7.014388489208632782e-01
6.978417266187050272e-01
6.870503597122301631e-01
6.870503597122301631e-01
6.906474820143885252e-01
6.942446043165467762e-01
6.870503597122301631e-01
6.834532374100719121e-01
7.014388489208632782e-01
7.086330935251798913e-01
7.158273381294963933e-01
7.086330935251798913e-01
7.050359712230215292e-01
6.978417266187050272e-01
6.978417266187050272e-01
6.978417266187050272e-01
7.014388489208632782e-01
7.014388489208632782e-01
7.014388489208632782e-01
6.978417266187050272e-01
6.582733812949640440e-01
6.510791366906474309e-01
6.510791366906474309e-01
6.654676258992805460e-01
6.798561151079136611e-01
6.762589928057554101e-01
6.726618705035971590e-01
6.690647482014387970e-01
6.618705035971222950e-01
6.618705035971222950e-01
6.546762589928057929e-01
6.654676258992805460e-01
6.870503597122301631e-01
6.870503597122301631e-01
6.798561151079136611e-01
6.978417266187050272e-01
7.194244604316546443e-01
7.158273381294963933e-01
6.870503597122301631e-01
6.942446043165467762e-01
7.086330935251798913e-01
6.906474820143885252e-01
6.906474820143885252e-01
6.942446043165467762e-01
7.086330935251798913e-01
6.906474820143885252e-01
6.762589928057554101e-01
6.043165467625899456e-01
5.287769784172662302e-01
4.532374100719424592e-01
3.561151079136690711e-01
4.064748201438849184e-01
4.676258992805755188e-01
5.395683453237409832e-01
6.223021582733813117e-01
6.618705035971222950e-01
6.942446043165467762e-01
6.978417266187050272e-01
6.870503597122301631e-01
6.942446043165467762e-01
6.942446043165467762e-01
6.978417266187050272e-01
7.086330935251798913e-01
7.194244604316546443e-01
7.122302158273381423e-01
7.050359712230215292e-01
7.050359712230215292e-01
7.014388489208632782e-01
7.014388489208632782e-01
7.014388489208632782e-01
7.014388489208632782e-01
6.906474820143885252e-01
6.906474820143885252e-01
6.942446043165467762e-01
7.050359712230215292e-01
7.158273381294963933e-01
7.194244604316546443e-01
7.086330935251798913e-01
6.978417266187050272e-01
6.942446043165467762e-01
6.942446043165467762e-01
6.978417266187050272e-01
7.014388489208632782e-01
7.014388489208632782e-01
7.014388489208632782e-01
7.014388489208632782e-01
7.014388489208632782e-01
6.942446043165467762e-01
6.798561151079136611e-01
6.762589928057554101e-01
6.726618705035971590e-01
6.690647482014387970e-01
6.582733812949640440e-01
6.438848920863309289e-01
6.510791366906474309e-01
6.726618705035971590e-01
6.798561151079136611e-01
6.690647482014387970e-01
6.618705035971222950e-01
6.474820143884891799e-01
6.258992805755395628e-01
6.187050359712230607e-01
6.079136690647481966e-01
6.043165467625899456e-01
5.971223021582733326e-01
5.863309352517985795e-01
5.827338129496403285e-01
5.827338129496403285e-01
5.899280575539568305e-01
6.007194244604316946e-01
6.007194244604316946e-01
6.151079136690646987e-01
6.294964028776978138e-01
6.438848920863309289e-01
6.546762589928057929e-01
6.582733812949640440e-01
6.654676258992805460e-01
6.654676258992805460e-01
6.690647482014387970e-01
6.690647482014387970e-01
6.762589928057554101e-01
6.834532374100719121e-01
6.834532374100719121e-01
6.906474820143885252e-01
6.978417266187050272e-01
6.978417266187050272e-01
6.978417266187050272e-01
6.942446043165467762e-01
6.942446043165467762e-01
6.978417266187050272e-01
6.978417266187050272e-01
7.014388489208632782e-01
6.978417266187050272e-01
6.942446043165467762e-01
6.870503597122301631e-01
6.906474820143885252e-01
6.978417266187050272e-01
7.050359712230215292e-01
7.086330935251798913e-01
7.086330935251798913e-01
7.050359712230215292e-01
7.086330935251798913e-01
7.122302158273381423e-01
7.158273381294963933e-01
7.158273381294963933e-01
7.086330935251798913e-01
7.014388489208632782e-01
6.942446043165467762e-01
6.942446043165467762e-01
6.906474820143885252e-01
6.870503597122301631e-01
6.834532374100719121e-01
6.690647482014387970e-01
6.654676258992805460e-01
6.690647482014387970e-01
6.870503597122301631e-01
6.762589928057554101e-01
6.726618705035971590e-01
6.762589928057554101e-01
6.798561151079136611e-01
6.726618705035971590e-01
6.726618705035971590e-01
6.762589928057554101e-01
6.762589928057554101e-01
6.834532374100719121e-01
6.870503597122301631e-01
6.942446043165467762e-01
6.798561151079136611e-01
6.582733812949640440e-01
6.546762589928057929e-01
6.654676258992805460e-01
6.762589928057554101e-01
6.654676258992805460e-01
6.654676258992805460e-01
6.690647482014387970e-01
6.726618705035971590e-01
6.726618705035971590e-01
6.726618705035971590e-01
6.672661870503596715e-01
6.618705035971222950e-01
6.618705035971222950e-01
6.762589928057554101e-01
6.798561151079136611e-01
6.834532374100719121e-01
6.618705035971222950e-01
6.582733812949640440e-01
6.618705035971222950e-01
6.546762589928057929e-01
6.510791366906474309e-01
6.654676258992805460e-01
6.834532374100719121e-01
6.834532374100719121e-01
6.582733812949640440e-01
6.618705035971222950e-01
6.726618705035971590e-01
6.978417266187050272e-01
6.870503597122301631e-01
6.834532374100719121e-01
6.870503597122301631e-01
6.870503597122301631e-01
6.726618705035971590e-01
6.618705035971222950e-01
6.546762589928057929e-01
6.402877697841726778e-01
6.223021582733813117e-01
6.258992805755395628e-01
6.294964028776978138e-01
6.258992805755395628e-01
6.115107913669064477e-01
6.330935251798560648e-01
6.366906474820144268e-01
6.258992805755395628e-01
6.151079136690646987e-01
6.258992805755395628e-01
6.402877697841726778e-01
6.294964028776978138e-01
6.330935251798560648e-01
6.330935251798560648e-01
6.546762589928057929e-01
6.690647482014387970e-01
6.762589928057554101e-01
6.726618705035971590e-01
6.726618705035971590e-01
6.582733812949640440e-01
6.582733812949640440e-01
6.834532374100719121e-01
6.942446043165467762e-01
6.726618705035971590e-01
6.582733812949640440e-01
6.223021582733813117e-01
5.503597122302158473e-01
4.856115107913668849e-01
3.741007194244604372e-01
3.273381294964028965e-01
3.956834532374100544e-01
4.532374100719424592e-01
5.467625899280575963e-01
6.115107913669064477e-01
6.438848920863309289e-01
6.762589928057554101e-01
6.834532374100719121e-01
6.870503597122301631e-01
6.726618705035971590e-01
6.618705035971222950e-01
6.690647482014387970e-01
6.870503597122301631e-01
6.906474820143885252e-01
6.834532374100719121e-01
6.762589928057554101e-01
6.834532374100719121e-01
6.870503597122301631e-01
6.942446043165467762e-01
6.906474820143885252e-01
6.906474820143885252e-01
6.834532374100719121e-01
6.654676258992805460e-01
6.474820143884891799e-01
6.330935251798560648e-01
6.294964028776978138e-01
6.402877697841726778e-01
6.474820143884891799e-01
6.690647482014387970e-01
6.690647482014387970e-01
6.618705035971222950e-01
6.546762589928057929e-01
6.546762589928057929e-01
6.618705035971222950e-01
6.690647482014387970e-01
6.690647482014387970e-01
6.654676258992805460e-01
6.654676258992805460e-01
6.690647482014387970e-01
6.690647482014387970e-01
6.690647482014387970e-01
6.618705035971222950e-01
6.474820143884891799e-01
6.438848920863309289e-01
6.366906474820144268e-01
6.294964028776978138e-01
6.115107913669064477e-01
6.043165467625899456e-01
6.043165467625899456e-01
6.258992805755395628e-01
6.043165467625899456e-01
6.043165467625899456e-01
5.683453237410072134e-01
5.647482014388489624e-01
5.647482014388489624e-01
5.611510791366906004e-01
5.611510791366906004e-01
5.683453237410072134e-01
5.719424460431654644e-01
5.827338129496403285e-01
5.863309352517985795e-01
5.971223021582733326e-01
6.043165467625899456e-01
6.115107913669064477e-01
6.187050359712230607e-01
6.294964028776978138e-01
6.474820143884891799e-01
6.726618705035971590e-01
6.834532374100719121e-01
6.726618705035971590e-01
6.546762589928057929e-01
6.582733812949640440e-01
6.582733812949640440e-01
6.582733812949640440e-01
6.582733812949640440e-01
6.618705035971222950e-01
6.546762589928057929e-01
6.582733812949640440e-01
6.654676258992805460e-01
6.690647482014387970e-01
6.258992805755395628e-01
6.258992805755395628e-01
6.258992805755395628e-01
6.258992805755395628e-01
6.258992805755395628e-01
6.258992805755395628e-01
9.712230215827337698e-01
9.568345323741007658e-01
9.568345323741007658e-01
9.100719424460431695e-01
9.028776978417266674e-01
9.244604316546762846e-01
9.244604316546762846e-01
9.028776978417266674e-01
9.028776978417266674e-01
8.992805755395683054e-01
9.172661870503596715e-01
9.424460431654676507e-01
9.496402877697841527e-01
9.604316546762590168e-01
6.223021582733813117e-01
6.187050359712230607e-01
6.258992805755395628e-01
6.258992805755395628e-01
8.705035971223021862e-01
8.812949640287769393e-01
9.028776978417266674e-01
9.208633093525180335e-01
9.424460431654676507e-01
9.604316546762590168e-01
7.985611510791367218e-01
7.985611510791367218e-01
7.985611510791367218e-01
9.784172661870503829e-01
9.604316546762590168e-01
9.388489208633093996e-01
9.244604316546762846e-01
9.100719424460431695e-01
8.848920863309353013e-01
8.741007194244604372e-01
8.633093525179855732e-01
7.410071942446042614e-01
6.151079136690646987e-01
6.151079136690646987e-01
6.115107913669064477e-01
8.669064748201439352e-01
9.316546762589927866e-01
9.280575539568345356e-01
9.244604316546762846e-01
8.633093525179855732e-01
6.187050359712230607e-01
6.151079136690646987e-01
7.374100719424460104e-01
8.669064748201439352e-01
8.705035971223021862e-01
8.776978417266186883e-01
9.244604316546762846e-01
9.064748201438849184e-01
9.172661870503596715e-01
9.172661870503596715e-01
9.892086330935251359e-01
1.000000000000000000e+00
8.021582733812949728e-01
6.043165467625899456e-01
6.079136690647481966e-01
6.151079136690646987e-01
6.187050359712230607e-01
6.258992805755395628e-01
6.258992805755395628e-01
6.294964028776978138e-01
6.402877697841726778e-01
6.438848920863309289e-01
6.438848920863309289e-01
6.366906474820144268e-01
6.330935251798560648e-01
6.510791366906474309e-01
6.582733812949640440e-01
6.690647482014387970e-01
6.618705035971222950e-01
6.798561151079136611e-01
6.870503597122301631e-01
7.014388489208632782e-01
6.726618705035971590e-01
6.654676258992805460e-01
6.330935251798560648e-01
6.223021582733813117e-01
6.115107913669064477e-01
6.187050359712230607e-01
6.258992805755395628e-01
6.402877697841726778e-01
6.330935251798560648e-01
6.294964028776978138e-01
6.294964028776978138e-01
6.258992805755395628e-01
6.187050359712230607e-01
6.115107913669064477e-01
6.115107913669064477e-01
6.258992805755395628e-01
6.690647482014387970e-01
7.266187050359712574e-01
7.949640287769784708e-01
8.705035971223021862e-01
9.136690647482014205e-01
8.561151079136690711e-01
7.697841726618704916e-01
7.014388489208632782e-01
6.510791366906474309e-01
6.151079136690646987e-01
6.079136690647481966e-01
6.151079136690646987e-01
6.151079136690646987e-01
6.079136690647481966e-01
6.043165467625899456e-01
6.151079136690646987e-01
6.223021582733813117e-01
6.187050359712230607e-01
6.223021582733813117e-01
6.330935251798560648e-01
6.366906474820144268e-01
6.438848920863309289e-01
6.438848920863309289e-01
6.366906474820144268e-01
6.294964028776978138e-01
6.294964028776978138e-01
6.258992805755395628e-01
6.258992805755395628e-01
6.223021582733813117e-01
6.187050359712230607e-01
6.187050359712230607e-01
6.151079136690646987e-01
6.187050359712230607e-01
6.258992805755395628e-01
6.294964028776978138e-01
6.366906474820144268e-01
6.366906474820144268e-01
6.366906474820144268e-01
6.402877697841726778e-01
6.402877697841726778e-01
6.438848920863309289e-01
6.402877697841726778e-01
6.366906474820144268e-01
6.366906474820144268e-01
6.330935251798560648e-01
6.474820143884891799e-01
6.510791366906474309e-01
6.762589928057554101e-01
6.906474820143885252e-01
7.014388489208632782e-01
7.014388489208632782e-01
6.942446043165467762e-01
6.942446043165467762e-01
6.906474820143885252e-01
7.014388489208632782e-01
7.050359712230215292e-01
7.194244604316546443e-01
7.446043165467626235e-01
7.482014388489208745e-01
7.410071942446042614e-01
7.338129496402877594e-01
7.230215827338128953e-01
7.158273381294963933e-01
7.086330935251798913e-01
6.834532374100719121e-01
6.798561151079136611e-01
6.546762589928057929e-01
6.402877697841726778e-01
6.258992805755395628e-01
6.438848920863309289e-01
6.474820143884891799e-01
6.546762589928057929e-01
6.510791366906474309e-01
6.474820143884891799e-01
6.330935251798560648e-01
6.330935251798560648e-01
6.402877697841726778e-01
6.330935251798560648e-01
6.258992805755395628e-01
6.366906474820144268e-01
6.438848920863309289e-01
6.474820143884891799e-01
6.474820143884891799e-01
6.546762589928057929e-01
6.510791366906474309e-01
6.438848920863309289e-01
6.366906474820144268e-01
6.402877697841726778e-01
6.366906474820144268e-01
6.330935251798560648e-01
6.223021582733813117e-01
6.223021582733813117e-01
6.151079136690646987e-01
6.187050359712230607e-01
6.187050359712230607e-01
6.187050359712230607e-01
6.151079136690646987e-01
6.151079136690646987e-01
6.223021582733813117e-01
6.330935251798560648e-01
6.474820143884891799e-01
6.474820143884891799e-01
6.438848920863309289e-01
6.438848920863309289e-01
6.438848920863309289e-01
6.366906474820144268e-01
6.258992805755395628e-01
6.258992805755395628e-01
6.258992805755395628e-01
6.223021582733813117e-01
6.223021582733813117e-01
6.258992805755395628e-01
6.366906474820144268e-01
6.474820143884891799e-01
6.546762589928057929e-01
6.546762589928057929e-01
6.582733812949640440e-01
6.618705035971222950e-01
6.546762589928057929e-01
6.474820143884891799e-01
6.402877697841726778e-01
6.366906474820144268e-01
6.294964028776978138e-01
6.294964028776978138e-01
6.294964028776978138e-01
6.294964028776978138e-01
6.510791366906474309e-01
6.546762589928057929e-01
6.438848920863309289e-01
6.294964028776978138e-01
6.187050359712230607e-01
6.187050359712230607e-01
6.258992805755395628e-01
6.294964028776978138e-01
6.330935251798560648e-01
6.402877697841726778e-01
6.366906474820144268e-01
6.294964028776978138e-01
6.258992805755395628e-01
6.258992805755395628e-01
6.294964028776978138e-01
6.187050359712230607e-01
6.258992805755395628e-01
6.330935251798560648e-01
6.402877697841726778e-01
6.402877697841726778e-01
6.438848920863309289e-01
6.546762589928057929e-01
6.546762589928057929e-01
6.474820143884891799e-01
6.366906474820144268e-01
6.223021582733813117e-01
6.223021582733813117e-01
6.438848920863309289e-01
6.474820143884891799e-01
6.654676258992805460e-01
6.618705035971222950e-01
6.582733812949640440e-01
6.690647482014387970e-01
6.870503597122301631e-01
6.870503597122301631e-01
6.798561151079136611e-01
6.762589928057554101e-01
6.834532374100719121e-01
6.834532374100719121e-01
6.726618705035971590e-01
6.654676258992805460e-01
6.654676258992805460e-01
6.474820143884891799e-01
6.330935251798560648e-01
6.223021582733813117e-01
6.330935251798560648e-01
6.330935251798560648e-01
6.258992805755395628e-01
6.151079136690646987e-01
6.187050359712230607e-01
6.258992805755395628e-01
6.223021582733813117e-01
6.115107913669064477e-01
6.151079136690646987e-01
6.187050359712230607e-01
6.187050359712230607e-01
6.402877697841726778e-01
6.762589928057554101e-01
7.338129496402877594e-01
8.165467625899280879e-01
8.633093525179855732e-01
8.992805755395683054e-01
8.561151079136690711e-01
7.697841726618704916e-01
7.302158273381295084e-01
6.798561151079136611e-01
6.654676258992805460e-01
6.546762589928057929e-01
6.438848920863309289e-01
6.438848920863309289e-01
6.330935251798560648e-01
6.294964028776978138e-01
6.151079136690646987e-01
6.115107913669064477e-01
6.079136690647481966e-01
6.151079136690646987e-01
6.258992805755395628e-01
6.294964028776978138e-01
6.187050359712230607e-01
6.043165467625899456e-01
6.079136690647481966e-01
6.223021582733813117e-01
6.223021582733813117e-01
6.258992805755395628e-01
6.294964028776978138e-01
6.330935251798560648e-01
6.258992805755395628e-01
6.187050359712230607e-01
6.223021582733813117e-01
6.223021582733813117e-01
6.187050359712230607e-01
6.151079136690646987e-01
6.187050359712230607e-01
6.151079136690646987e-01
6.151079136690646987e-01
6.258992805755395628e-01
6.402877697841726778e-01
6.438848920863309289e-01
6.438848920863309289e-01
6.402877697841726778e-01
6.402877697841726778e-01
6.402877697841726778e-01
6.438848920863309289e-01
6.438848920863309289e-01
6.438848920863309289e-01
6.474820143884891799e-01
6.510791366906474309e-01
6.582733812949640440e-01
6.582733812949640440e-01
6.762589928057554101e-01
6.870503597122301631e-01
7.086330935251798913e-01
7.230215827338128953e-01
7.158273381294963933e-01
7.158273381294963933e-01
7.158273381294963933e-01
7.338129496402877594e-01
7.338129496402877594e-01
7.302158273381295084e-01
7.194244604316546443e-01
7.050359712230215292e-01
6.942446043165467762e-01
6.834532374100719121e-01
6.762589928057554101e-01
6.762589928057554101e-01
6.690647482014387970e-01
6.582733812949640440e-01
6.438848920863309289e-01
6.366906474820144268e-01
6.330935251798560648e-01
6.366906474820144268e-01
6.366906474820144268e-01
6.294964028776978138e-01
6.187050359712230607e-01
6.079136690647481966e-01
6.151079136690646987e-01
6.187050359712230607e-01
6.402877697841726778e-01
6.330935251798560648e-01
6.258992805755395628e-01
6.258992805755395628e-01
6.258992805755395628e-01
6.294964028776978138e-01
6.223021582733813117e-01
6.187050359712230607e-01
6.079136690647481966e-01
6.079136690647481966e-01
6.079136690647481966e-01
6.151079136690646987e-01
6.187050359712230607e-01
6.187050359712230607e-01
6.115107913669064477e-01
6.187050359712230607e-01
6.258992805755395628e-01
6.294964028776978138e-01
6.258992805755395628e-01
6.258992805755395628e-01
6.223021582733813117e-01
6.187050359712230607e-01
6.258992805755395628e-01
6.294964028776978138e-01
6.438848920863309289e-01
6.330935251798560648e-01
6.115107913669064477e-01
6.079136690647481966e-01
6.151079136690646987e-01
6.438848920863309289e-01
6.438848920863309289e-01
6.330935251798560648e-01
6.258992805755395628e-01
6.187050359712230607e-01
6.115107913669064477e-01
6.151079136690646987e-01
6.258992805755395628e-01
6.330935251798560648e-01
6.330935251798560648e-01
6.294964028776978138e-01
6.223021582733813117e-01
6.223021582733813117e-01
6.115107913669064477e-01
6.079136690647481966e-01
6.007194244604316946e-01
6.043165467625899456e-01
6.187050359712230607e-01
6.294964028776978138e-01
6.366906474820144268e-01
6.294964028776978138e-01
6.223021582733813117e-01
6.187050359712230607e-01
6.151079136690646987e-01
6.151079136690646987e-01
6.294964028776978138e-01
6.366906474820144268e-01
6.366906474820144268e-01
6.330935251798560648e-01
6.294964028776978138e-01
6.223021582733813117e-01
6.151079136690646987e-01
6.115107913669064477e-01
6.115107913669064477e-01
6.115107913669064477e-01
6.115107913669064477e-01
6.115107913669064477e-01
6.151079136690646987e-01
6.115107913669064477e-01
6.079136690647481966e-01
6.079136690647481966e-01
6.079136690647481966e-01
6.115107913669064477e-01
6.115107913669064477e-01
6.294964028776978138e-01
6.330935251798560648e-01
6.402877697841726778e-01
6.402877697841726778e-01
6.330935251798560648e-01
6.330935251798560648e-01
6.402877697841726778e-01
6.510791366906474309e-01
6.582733812949640440e-01
6.654676258992805460e-01
6.798561151079136611e-01
6.870503597122301631e-01
6.870503597122301631e-01
6.942446043165467762e-01
6.942446043165467762e-01
6.978417266187050272e-01
6.978417266187050272e-01
6.726618705035971590e-01
6.618705035971222950e-01
6.402877697841726778e-01
6.294964028776978138e-01
6.223021582733813117e-01
6.151079136690646987e-01
6.115107913669064477e-01
6.151079136690646987e-01
6.151079136690646987e-01
6.007194244604316946e-01
5.899280575539568305e-01
5.971223021582733326e-01
6.187050359712230607e-01
6.187050359712230607e-01
6.187050359712230607e-01
6.294964028776978138e-01
6.834532374100719121e-01
7.446043165467626235e-01
7.877697841726618577e-01
8.812949640287769393e-01
8.920863309352518034e-01
8.345323741007194540e-01
7.697841726618704916e-01
7.014388489208632782e-01
6.510791366906474309e-01
6.187050359712230607e-01
6.115107913669064477e-01
6.007194244604316946e-01
6.007194244604316946e-01
6.007194244604316946e-01
6.043165467625899456e-01
6.079136690647481966e-01
6.223021582733813117e-01
6.223021582733813117e-01
6.402877697841726778e-01
6.223021582733813117e-01
6.115107913669064477e-01
5.971223021582733326e-01
5.971223021582733326e-01
6.115107913669064477e-01
6.438848920863309289e-01
6.258992805755395628e-01
6.258992805755395628e-01
6.258992805755395628e-01
6.258992805755395628e-01
6.330935251798560648e-01
6.366906474820144268e-01
8.741007194244604372e-01
8.848920863309353013e-01
9.028776978417266674e-01
9.208633093525180335e-01
9.352517985611510376e-01
9.424460431654676507e-01
9.676258992805755188e-01
9.856115107913668849e-01
9.964028776978417490e-01
9.892086330935251359e-01
9.784172661870503829e-01
9.568345323741007658e-01
9.388489208633093996e-01
9.172661870503596715e-01
8.992805755395683054e-01
8.812949640287769393e-01
8.741007194244604372e-01
5.827338129496403285e-01
5.683453237410072134e-01
5.611510791366906004e-01
5.647482014388489624e-01
8.776978417266186883e-01
8.776978417266186883e-01
8.741007194244604372e-01
8.705035971223021862e-01
8.669064748201439352e-01
9.280575539568345356e-01
9.316546762589927866e-01
9.280575539568345356e-01
9.136690647482014205e-01
5.827338129496403285e-01
5.971223021582733326e-01
6.043165467625899456e-01
8.021582733812949728e-01
6.115107913669064477e-01
6.043165467625899456e-01
6.043165467625899456e-01
6.079136690647481966e-01
6.115107913669064477e-01
6.115107913669064477e-01
6.151079136690646987e-01
6.187050359712230607e-01
6.187050359712230607e-01
6.187050359712230607e-01
6.187050359712230607e-01
6.115107913669064477e-01
6.115107913669064477e-01
6.115107913669064477e-01
6.115107913669064477e-01
6.115107913669064477e-01
6.115107913669064477e-01
6.115107913669064477e-01
6.115107913669064477e-01
6.115107913669064477e-01
6.115107913669064477e-01
6.115107913669064477e-01
6.115107913669064477e-01
6.115107913669064477e-01
6.151079136690646987e-01
6.151079136690646987e-01
6.043165467625899456e-01
6.007194244604316946e-01
5.971223021582733326e-01
5.971223021582733326e-01
5.971223021582733326e-01
6.007194244604316946e-01
6.007194244604316946e-01
6.007194244604316946e-01
6.007194244604316946e-01
6.043165467625899456e-01
6.043165467625899456e-01
6.043165467625899456e-01
6.043165467625899456e-01
6.079136690647481966e-01
6.079136690647481966e-01
6.079136690647481966e-01
6.079136690647481966e-01
6.079136690647481966e-01
6.115107913669064477e-01
6.115107913669064477e-01
6.115107913669064477e-01
6.115107913669064477e-01
6.115107913669064477e-01
6.115107913669064477e-01
6.115107913669064477e-01
6.151079136690646987e-01
6.151079136690646987e-01
6.151079136690646987e-01
6.151079136690646987e-01
6.151079136690646987e-01
6.151079136690646987e-01
6.151079136690646987e-01
6.151079136690646987e-01
6.187050359712230607e-01
6.187050359712230607e-01
6.187050359712230607e-01
6.187050359712230607e-01
6.187050359712230607e-01
6.187050359712230607e-01
6.187050359712230607e-01
6.187050359712230607e-01
6.187050359712230607e-01
6.187050359712230607e-01
6.187050359712230607e-01
6.187050359712230607e-01
6.151079136690646987e-01
6.151079136690646987e-01
6.187050359712230607e-01
6.223021582733813117e-01
6.223021582733813117e-01
6.223021582733813117e-01
6.223021582733813117e-01
6.258992805755395628e-01
6.258992805755395628e-01
6.258992805755395628e-01
6.223021582733813117e-01
6.115107913669064477e-01
6.115107913669064477e-01
6.079136690647481966e-01
6.079136690647481966e-01
6.115107913669064477e-01
6.115107913669064477e-01
6.115107913669064477e-01
6.115107913669064477e-01
6.151079136690646987e-01
6.151079136690646987e-01
6.151079136690646987e-01
6.151079136690646987e-01
6.079136690647481966e-01
6.043165467625899456e-01
6.007194244604316946e-01
6.043165467625899456e-01
6.043165467625899456e-01
6.079136690647481966e-01
6.115107913669064477e-01
6.115107913669064477e-01
6.151079136690646987e-01
6.151079136690646987e-01
6.187050359712230607e-01
6.258992805755395628e-01
6.294964028776978138e-01
6.294964028776978138e-01
6.258992805755395628e-01
6.258992805755395628e-01
6.223021582733813117e-01
6.223021582733813117e-01
6.187050359712230607e-01
6.187050359712230607e-01
6.187050359712230607e-01
6.151079136690646987e-01
6.043165467625899456e-01
6.043165467625899456e-01
6.043165467625899456e-01
6.007194244604316946e-01
5.935251798561150816e-01
5.827338129496403285e-01
5.575539568345323493e-01
5.611510791366906004e-01
6.258992805755395628e-01
7.050359712230215292e-01
7.985611510791367218e-01
8.776978417266186883e-01
9.388489208633093996e-01
9.676258992805755188e-01
9.352517985611510376e-01
8.633093525179855732e-01
7.985611510791367218e-01
7.410071942446042614e-01
6.762589928057554101e-01
6.474820143884891799e-01
6.223021582733813117e-01
6.115107913669064477e-01
6.043165467625899456e-01
5.971223021582733326e-01
5.971223021582733326e-01
5.935251798561150816e-01
5.935251798561150816e-01
5.935251798561150816e-01
5.935251798561150816e-01
5.899280575539568305e-01
5.899280575539568305e-01
5.863309352517985795e-01
5.863309352517985795e-01
5.863309352517985795e-01
5.863309352517985795e-01
5.863309352517985795e-01
5.827338129496403285e-01
5.791366906474819665e-01
5.791366906474819665e-01
5.791366906474819665e-01
5.791366906474819665e-01
5.791366906474819665e-01
5.755395683453237154e-01
5.755395683453237154e-01
5.719424460431654644e-01
5.755395683453237154e-01
5.755395683453237154e-01
5.755395683453237154e-01
5.719424460431654644e-01
5.719424460431654644e-01
5.719424460431654644e-01
5.683453237410072134e-01
5.683453237410072134e-01
5.683453237410072134e-01
5.683453237410072134e-01
5.611510791366906004e-01
5.575539568345323493e-01
5.575539568345323493e-01
5.611510791366906004e-01
5.611510791366906004e-01
5.611510791366906004e-01
5.647482014388489624e-01
5.683453237410072134e-01
5.683453237410072134e-01
5.719424460431654644e-01
5.719424460431654644e-01
5.755395683453237154e-01
5.755395683453237154e-01
5.827338129496403285e-01
5.827338129496403285e-01
5.899280575539568305e-01
5.899280575539568305e-01
5.935251798561150816e-01
5.971223021582733326e-01
5.971223021582733326e-01
5.971223021582733326e-01
6.007194244604316946e-01
6.007194244604316946e-01
6.043165467625899456e-01
6.043165467625899456e-01
6.043165467625899456e-01
6.079136690647481966e-01
6.079136690647481966e-01
6.079136690647481966e-01
6.061151079136690711e-01
6.043165467625899456e-01
6.043165467625899456e-01
6.043165467625899456e-01
6.043165467625899456e-01
6.043165467625899456e-01
6.043165467625899456e-01
6.043165467625899456e-01
6.043165467625899456e-01
6.043165467625899456e-01
6.079136690647481966e-01
6.079136690647481966e-01
6.079136690647481966e-01
6.079136690647481966e-01
6.079136690647481966e-01
6.079136690647481966e-01
6.079136690647481966e-01
6.079136690647481966e-01
6.043165467625899456e-01
6.007194244604316946e-01
6.007194244604316946e-01
6.007194244604316946e-01
6.007194244604316946e-01
6.007194244604316946e-01
6.043165467625899456e-01
6.043165467625899456e-01
6.043165467625899456e-01
6.043165467625899456e-01
6.043165467625899456e-01
6.043165467625899456e-01
6.043165467625899456e-01
6.079136690647481966e-01
6.079136690647481966e-01
6.079136690647481966e-01
6.079136690647481966e-01
6.079136690647481966e-01
6.079136690647481966e-01
6.079136690647481966e-01
6.079136690647481966e-01
6.079136690647481966e-01
6.079136690647481966e-01
6.115107913669064477e-01
6.115107913669064477e-01
6.115107913669064477e-01
6.115107913669064477e-01
6.115107913669064477e-01
6.115107913669064477e-01
6.115107913669064477e-01
6.151079136690646987e-01
6.151079136690646987e-01
6.115107913669064477e-01
6.115107913669064477e-01
6.151079136690646987e-01
6.187050359712230607e-01
6.187050359712230607e-01
6.187050359712230607e-01
6.223021582733813117e-01
6.223021582733813117e-01
6.258992805755395628e-01
6.258992805755395628e-01
6.258992805755395628e-01
6.294964028776978138e-01
6.258992805755395628e-01
6.258992805755395628e-01
6.258992805755395628e-01
6.258992805755395628e-01
6.223021582733813117e-01
6.223021582733813117e-01
6.223021582733813117e-01
6.187050359712230607e-01
6.187050359712230607e-01
6.187050359712230607e-01
6.223021582733813117e-01
6.223021582733813117e-01
6.258992805755395628e-01
6.258992805755395628e-01
6.258992805755395628e-01
6.258992805755395628e-01
6.276978417266186883e-01
6.294964028776978138e-01
6.294964028776978138e-01
6.294964028776978138e-01
6.258992805755395628e-01
6.258992805755395628e-01
6.223021582733813117e-01
6.187050359712230607e-01
6.151079136690646987e-01
6.151079136690646987e-01
6.151079136690646987e-01
6.187050359712230607e-01
6.187050359712230607e-01
6.187050359712230607e-01
6.223021582733813117e-01
6.223021582733813117e-01
6.258992805755395628e-01
6.258992805755395628e-01
6.258992805755395628e-01
6.258992805755395628e-01
6.223021582733813117e-01
6.151079136690646987e-01
6.115107913669064477e-01
6.115107913669064477e-01
6.115107913669064477e-01
6.115107913669064477e-01
6.115107913669064477e-01
6.115107913669064477e-01
6.115107913669064477e-01
6.115107913669064477e-01
6.115107913669064477e-01
6.043165467625899456e-01
5.971223021582733326e-01
5.719424460431654644e-01
5.683453237410072134e-01
6.079136690647481966e-01
6.654676258992805460e-01
7.446043165467626235e-01
8.453237410071942071e-01
9.100719424460431695e-01
9.676258992805755188e-01
9.460431654676259017e-01
8.956834532374100544e-01
8.273381294964028410e-01
7.733812949640287426e-01
7.086330935251798913e-01
6.510791366906474309e-01
6.330935251798560648e-01
6.223021582733813117e-01
6.151079136690646987e-01
6.043165467625899456e-01
6.007194244604316946e-01
5.935251798561150816e-01
5.935251798561150816e-01
5.899280575539568305e-01
5.899280575539568305e-01
5.935251798561150816e-01
5.935251798561150816e-01
5.935251798561150816e-01
5.935251798561150816e-01
5.935251798561150816e-01
5.935251798561150816e-01
5.899280575539568305e-01
5.827338129496403285e-01
5.827338129496403285e-01
5.755395683453237154e-01
5.755395683453237154e-01
5.755395683453237154e-01
5.755395683453237154e-01
5.755395683453237154e-01
5.755395683453237154e-01
5.755395683453237154e-01
5.755395683453237154e-01
5.755395683453237154e-01
5.755395683453237154e-01
5.755395683453237154e-01
5.719424460431654644e-01
5.683453237410072134e-01
5.683453237410072134e-01
5.647482014388489624e-01
5.683453237410072134e-01
5.683453237410072134e-01
5.539568345323740983e-01
5.431654676258992342e-01
5.395683453237409832e-01
5.467625899280575963e-01
5.539568345323740983e-01
5.575539568345323493e-01
5.611510791366906004e-01
5.611510791366906004e-01
5.647482014388489624e-01
5.683453237410072134e-01
5.683453237410072134e-01
5.755395683453237154e-01
5.755395683453237154e-01
5.827338129496403285e-01
5.899280575539568305e-01
5.899280575539568305e-01
5.971223021582733326e-01
6.007194244604316946e-01
6.043165467625899456e-01
6.043165467625899456e-01
6.079136690647481966e-01
6.115107913669064477e-01
6.115107913669064477e-01
6.151079136690646987e-01
6.151079136690646987e-01
6.151079136690646987e-01
6.151079136690646987e-01
6.187050359712230607e-01
6.187050359712230607e-01
6.187050359712230607e-01
6.223021582733813117e-01
6.223021582733813117e-01
6.223021582733813117e-01
6.258992805755395628e-01
6.258992805755395628e-01
6.258992805755395628e-01
6.258992805755395628e-01
6.258992805755395628e-01
6.258992805755395628e-01
6.258992805755395628e-01
6.258992805755395628e-01
6.258992805755395628e-01
6.258992805755395628e-01
6.258992805755395628e-01
6.258992805755395628e-01
6.258992805755395628e-01
6.223021582733813117e-01
6.223021582733813117e-01
6.223021582733813117e-01
6.223021582733813117e-01
6.223021582733813117e-01
6.223021582733813117e-01
6.223021582733813117e-01
6.223021582733813117e-01
6.223021582733813117e-01
6.223021582733813117e-01
6.223021582733813117e-01
6.223021582733813117e-01
6.258992805755395628e-01
6.258992805755395628e-01
6.330935251798560648e-01
6.330935251798560648e-01
6.330935251798560648e-01
6.330935251798560648e-01
6.330935251798560648e-01
6.330935251798560648e-01
6.330935251798560648e-01
6.294964028776978138e-01
6.330935251798560648e-01
6.223021582733813117e-01
6.151079136690646987e-01
6.115107913669064477e-01
6.115107913669064477e-01
6.151079136690646987e-01
6.187050359712230607e-01
6.187050359712230607e-01
6.223021582733813117e-01
6.258992805755395628e-01
6.258992805755395628e-01
6.258992805755395628e-01
6.258992805755395628e-01
6.258992805755395628e-01
6.187050359712230607e-01
6.187050359712230607e-01
6.187050359712230607e-01
6.187050359712230607e-01
6.187050359712230607e-01
6.187050359712230607e-01
6.258992805755395628e-01
6.294964028776978138e-01
6.294964028776978138e-01
6.294964028776978138e-01
6.258992805755395628e-01
6.258992805755395628e-01
6.258992805755395628e-01
6.258992805755395628e-01
6.258992805755395628e-01
6.402877697841726778e-01
8.741007194244604372e-01
8.812949640287769393e-01
8.992805755395683054e-01
9.136690647482014205e-01
9.352517985611510376e-01
9.568345323741007658e-01
9.748201438848921319e-01
9.856115107913668849e-01
9.928057553956834980e-01
9.856115107913668849e-01
9.784172661870503829e-01
9.532374100719424037e-01
9.388489208633093996e-01
9.172661870503596715e-01
8.992805755395683054e-01
8.776978417266186883e-01
8.705035971223021862e-01
7.482014388489208745e-01
6.223021582733813117e-01
6.294964028776978138e-01
9.568345323741007658e-01
9.532374100719424037e-01
9.352517985611510376e-01
9.280575539568345356e-01
9.136690647482014205e-01
9.028776978417266674e-01
8.920863309352518034e-01
8.705035971223021862e-01
8.633093525179855732e-01
9.352517985611510376e-01
9.280575539568345356e-01
9.316546762589927866e-01
8.705035971223021862e-01
6.690647482014387970e-01
8.165467625899280879e-01
6.618705035971222950e-01
6.546762589928057929e-01
6.582733812949640440e-01
6.330935251798560648e-01
5.899280575539568305e-01
5.251798561151078681e-01
4.388489208633093441e-01
3.741007194244604372e-01
3.741007194244604372e-01
4.964028776978417490e-01
5.827338129496403285e-01
7.122302158273381423e-01
7.625899280575539896e-01
7.949640287769784708e-01
7.769784172661871047e-01
7.410071942446042614e-01
7.158273381294963933e-01
6.942446043165467762e-01
6.690647482014387970e-01
6.654676258992805460e-01
6.618705035971222950e-01
6.582733812949640440e-01
6.546762589928057929e-01
6.510791366906474309e-01
6.510791366906474309e-01
6.510791366906474309e-01
6.510791366906474309e-01
6.510791366906474309e-01
6.474820143884891799e-01
6.474820143884891799e-01
6.474820143884891799e-01
6.474820143884891799e-01
6.438848920863309289e-01
6.438848920863309289e-01
6.438848920863309289e-01
6.438848920863309289e-01
6.402877697841726778e-01
6.402877697841726778e-01
6.402877697841726778e-01
6.402877697841726778e-01
6.366906474820144268e-01
6.366906474820144268e-01
6.366906474820144268e-01
6.330935251798560648e-01
6.330935251798560648e-01
6.330935251798560648e-01
6.294964028776978138e-01
6.258992805755395628e-01
6.258992805755395628e-01
6.258992805755395628e-01
6.187050359712230607e-01
6.115107913669064477e-01
6.007194244604316946e-01
5.971223021582733326e-01
5.791366906474819665e-01
5.755395683453237154e-01
5.611510791366906004e-01
5.575539568345323493e-01
5.467625899280575963e-01
5.359712230215827322e-01
5.323741007194244812e-01
5.215827338129496171e-01
5.179856115107913661e-01
5.107913669064748641e-01
5.179856115107913661e-01
5.179856115107913661e-01
5.251798561151078681e-01
5.359712230215827322e-01
5.467625899280575963e-01
5.647482014388489624e-01
5.791366906474819665e-01
5.899280575539568305e-01
6.007194244604316946e-01
6.115107913669064477e-01
6.187050359712230607e-01
6.258992805755395628e-01
6.258992805755395628e-01
6.294964028776978138e-01
6.330935251798560648e-01
6.330935251798560648e-01
6.366906474820144268e-01
6.402877697841726778e-01
6.402877697841726778e-01
6.402877697841726778e-01
6.402877697841726778e-01
6.402877697841726778e-01
6.402877697841726778e-01
6.438848920863309289e-01
6.474820143884891799e-01
6.474820143884891799e-01
6.474820143884891799e-01
6.546762589928057929e-01
6.654676258992805460e-01
6.690647482014387970e-01
6.690647482014387970e-01
6.618705035971222950e-01
6.618705035971222950e-01
6.546762589928057929e-01
6.546762589928057929e-01
6.510791366906474309e-01
6.474820143884891799e-01
6.438848920863309289e-01
6.438848920863309289e-01
6.438848920863309289e-01
6.402877697841726778e-01
6.366906474820144268e-01
6.402877697841726778e-01
6.438848920863309289e-01
6.474820143884891799e-01
6.366906474820144268e-01
6.330935251798560648e-01
6.366906474820144268e-01
6.402877697841726778e-01
6.366906474820144268e-01
6.330935251798560648e-01
6.330935251798560648e-01
6.330935251798560648e-01
6.294964028776978138e-01
6.258992805755395628e-01
6.258992805755395628e-01
6.223021582733813117e-01
6.223021582733813117e-01
6.223021582733813117e-01
6.258992805755395628e-01
6.258992805755395628e-01
6.294964028776978138e-01
6.330935251798560648e-01
6.330935251798560648e-01
6.330935251798560648e-01
6.402877697841726778e-01
6.402877697841726778e-01
6.438848920863309289e-01
6.438848920863309289e-01
6.438848920863309289e-01
6.438848920863309289e-01
6.438848920863309289e-01
6.402877697841726778e-01
6.402877697841726778e-01
6.366906474820144268e-01
6.366906474820144268e-01
6.366906474820144268e-01
6.366906474820144268e-01
6.366906474820144268e-01
6.366906474820144268e-01
6.402877697841726778e-01
6.402877697841726778e-01
6.366906474820144268e-01
6.330935251798560648e-01
6.330935251798560648e-01
6.330935251798560648e-01
6.294964028776978138e-01
6.294964028776978138e-01
6.258992805755395628e-01
6.258992805755395628e-01
6.258992805755395628e-01
6.223021582733813117e-01
6.187050359712230607e-01
6.151079136690646987e-01
6.115107913669064477e-01
6.151079136690646987e-01
6.187050359712230607e-01
6.223021582733813117e-01
6.187050359712230607e-01
6.115107913669064477e-01
6.007194244604316946e-01
5.935251798561150816e-01
5.899280575539568305e-01
5.935251798561150816e-01
6.007194244604316946e-01
6.079136690647481966e-01
6.187050359712230607e-01
6.294964028776978138e-01
6.402877697841726778e-01
6.402877697841726778e-01
6.438848920863309289e-01
6.474820143884891799e-01
6.474820143884891799e-01
6.474820143884891799e-01
6.474820143884891799e-01
6.456834532374100544e-01
6.438848920863309289e-01
6.438848920863309289e-01
6.438848920863309289e-01
6.043165467625899456e-01
5.503597122302158473e-01
4.676258992805755188e-01
3.669064748201438797e-01
3.093525179856115304e-01
4.028776978417266119e-01
4.856115107913668849e-01
6.079136690647481966e-01
7.302158273381295084e-01
7.805755395683453557e-01
7.661870503597122406e-01
7.446043165467626235e-01
7.158273381294963933e-01
6.978417266187050272e-01
6.762589928057554101e-01
6.618705035971222950e-01
6.582733812949640440e-01
6.582733812949640440e-01
6.546762589928057929e-01
6.474820143884891799e-01
6.474820143884891799e-01
6.474820143884891799e-01
6.510791366906474309e-01
6.510791366906474309e-01
6.510791366906474309e-01
6.510791366906474309e-01
6.474820143884891799e-01
6.474820143884891799e-01
6.474820143884891799e-01
6.474820143884891799e-01
6.474820143884891799e-01
6.474820143884891799e-01
6.438848920863309289e-01
6.438848920863309289e-01
6.438848920863309289e-01
6.402877697841726778e-01
6.366906474820144268e-01
6.366906474820144268e-01
6.330935251798560648e-01
6.330935251798560648e-01
6.294964028776978138e-01
6.258992805755395628e-01
6.294964028776978138e-01
6.366906474820144268e-01
6.402877697841726778e-01
6.330935251798560648e-01
6.294964028776978138e-01
6.258992805755395628e-01
6.187050359712230607e-01
6.115107913669064477e-01
6.007194244604316946e-01
5.863309352517985795e-01
5.719424460431654644e-01
5.611510791366906004e-01
5.503597122302158473e-01
5.467625899280575963e-01
5.359712230215827322e-01
5.287769784172662302e-01
5.179856115107913661e-01
5.179856115107913661e-01
5.179856115107913661e-01
5.179856115107913661e-01
5.179856115107913661e-01
5.287769784172662302e-01
5.395683453237409832e-01
5.539568345323740983e-01
5.647482014388489624e-01
5.755395683453237154e-01
5.899280575539568305e-01
6.007194244604316946e-01
6.115107913669064477e-01
6.223021582733813117e-01
6.258992805755395628e-01
6.294964028776978138e-01
6.330935251798560648e-01
6.366906474820144268e-01
6.438848920863309289e-01
6.438848920863309289e-01
6.438848920863309289e-01
6.438848920863309289e-01
6.438848920863309289e-01
6.438848920863309289e-01
6.438848920863309289e-01
6.438848920863309289e-01
6.438848920863309289e-01
6.438848920863309289e-01
6.438848920863309289e-01
6.474820143884891799e-01
6.510791366906474309e-01
6.546762589928057929e-01
6.510791366906474309e-01
6.510791366906474309e-01
6.510791366906474309e-01
6.510791366906474309e-01
6.510791366906474309e-01
6.510791366906474309e-01
6.510791366906474309e-01
6.510791366906474309e-01
6.510791366906474309e-01
6.474820143884891799e-01
6.474820143884891799e-01
6.474820143884891799e-01
6.474820143884891799e-01
6.438848920863309289e-01
6.438848920863309289e-01
6.438848920863309289e-01
6.438848920863309289e-01
6.402877697841726778e-01
6.402877697841726778e-01
6.402877697841726778e-01
6.402877697841726778e-01
6.402877697841726778e-01
6.366906474820144268e-01
6.366906474820144268e-01
6.366906474820144268e-01
6.366906474820144268e-01
6.366906474820144268e-01
6.366906474820144268e-01
6.366906474820144268e-01
6.366906474820144268e-01
6.402877697841726778e-01
6.438848920863309289e-01
6.474820143884891799e-01
6.474820143884891799e-01
6.438848920863309289e-01
6.438848920863309289e-01
6.402877697841726778e-01
6.402877697841726778e-01
6.402877697841726778e-01
6.402877697841726778e-01
6.366906474820144268e-01
6.366906474820144268e-01
6.366906474820144268e-01
6.402877697841726778e-01
6.402877697841726778e-01
6.402877697841726778e-01
6.402877697841726778e-01
6.402877697841726778e-01
6.402877697841726778e-01
6.366906474820144268e-01
6.366906474820144268e-01
6.366906474820144268e-01
6.366906474820144268e-01
6.438848920863309289e-01
6.438848920863309289e-01
6.510791366906474309e-01
6.510791366906474309e-01
6.510791366906474309e-01
6.510791366906474309e-01
6.474820143884891799e-01
6.474820143884891799e-01
6.474820143884891799e-01
6.474820143884891799e-01
6.474820143884891799e-01
6.456834532374100544e-01
6.438848920863309289e-01
6.438848920863309289e-01
6.402877697841726778e-01
6.402877697841726778e-01
6.366906474820144268e-01
6.366906474820144268e-01
6.330935251798560648e-01
6.330935251798560648e-01
6.294964028776978138e-01
6.258992805755395628e-01
6.258992805755395628e-01
6.258992805755395628e-01
6.258992805755395628e-01
6.258992805755395628e-01
6.187050359712230607e-01
6.187050359712230607e-01
6.115107913669064477e-01
6.079136690647481966e-01
6.079136690647481966e-01
6.115107913669064477e-01
6.187050359712230607e-01
6.258992805755395628e-01
6.366906474820144268e-01
6.438848920863309289e-01
6.510791366906474309e-01
6.618705035971222950e-01
6.618705035971222950e-01
6.618705035971222950e-01
6.618705035971222950e-01
6.618705035971222950e-01
6.618705035971222950e-01
6.618705035971222950e-01
6.618705035971222950e-01
6.618705035971222950e-01
6.402877697841726778e-01
5.863309352517985795e-01
5.251798561151078681e-01
4.388489208633093441e-01
3.525179856115107646e-01
3.417266187050359560e-01
4.676258992805755188e-01
5.467625899280575963e-01
6.834532374100719121e-01
7.589928057553957386e-01
7.841726618705036067e-01
