4.937343358395989701e-01
4.937343358395989701e-01
4.921231650554959147e-01
4.905119942713928038e-01
4.889008234872896930e-01
4.872896527031865266e-01
4.856784819190834157e-01
4.840673111349803048e-01
4.824561403508771940e-01
4.808449695667740831e-01
4.792337987826709722e-01
4.776226279985678613e-01
4.760114572144646949e-01
4.744002864303615841e-01
4.727891156462584732e-01
4.711779448621553623e-01
4.695667740780523070e-01
4.679556032939491961e-01
4.663444325098460852e-01
4.647332617257429188e-01
4.631220909416398079e-01
4.615109201575366971e-01
4.598997493734335862e-01
4.582885785893304753e-01
4.566774078052273644e-01
4.550662370211241980e-01
4.534550662370210872e-01
4.518438954529179763e-01
4.502327246688148654e-01
4.486215538847117545e-01
4.470103831006086992e-01
4.453992123165055883e-01
4.437880415324023664e-01
4.421768707482993110e-01
4.405656999641962002e-01
4.389545291800930893e-01
4.373433583959899784e-01
4.357321876118868675e-01
4.341210168277837567e-01
4.325098460436805903e-01
4.308986752595774794e-01
4.292875044754743685e-01
4.276763336913712577e-01
4.260651629072681468e-01
4.244539921231650914e-01
4.228428213390619805e-01
4.212316505549587586e-01
4.196204797708557033e-01
4.180093089867525924e-01
4.163981382026494815e-01
4.147869674185463706e-01
4.131757966344432598e-01
4.115646258503401489e-01
4.099534550662369825e-01
4.083422842821338716e-01
4.067311134980307608e-01
4.051199427139276499e-01
4.035087719298245390e-01
4.018976011457214836e-01
4.002864303616183728e-01
3.986752595775151509e-01
3.970640887934120955e-01
3.954529180093089846e-01
3.938417472252058738e-01
3.922305764411027629e-01
3.906194056569996520e-01
3.890082348728965411e-01
3.873970640887933747e-01
3.857858933046902639e-01
3.841747225205871530e-01
3.825635517364840421e-01
3.809523809523809312e-01
3.793412101682778204e-01
3.777300393841747650e-01
3.761188686000715431e-01
3.745076978159684877e-01
3.728965270318653769e-01
3.712853562477622660e-01
3.696741854636591551e-01
5.639097744360902498e-01
5.639097744360902498e-01
5.639097744360902498e-01
5.050125313283208017e-01
5.050125313283208017e-01
5.050125313283208017e-01
5.050125313283208017e-01
5.050125313283208017e-01
5.050125313283208017e-01
5.050125313283208017e-01
5.050125313283208017e-01
5.050125313283208017e-01
5.050125313283208017e-01
5.050125313283208017e-01
5.050125313283208017e-01
5.050125313283208017e-01
5.050125313283208017e-01
5.050125313283208017e-01
5.050125313283208017e-01
5.050125313283208017e-01
5.050125313283208017e-01
5.050125313283208017e-01
5.050125313283208017e-01
5.050125313283208017e-01
5.050125313283208017e-01
5.050125313283208017e-01
5.050125313283208017e-01
5.050125313283208017e-01
5.050125313283208017e-01
5.050125313283208017e-01
5.050125313283208017e-01
5.050125313283208017e-01
5.050125313283208017e-01
5.050125313283208017e-01
5.050125313283208017e-01
5.050125313283208017e-01
5.050125313283208017e-01
5.050125313283208017e-01
5.050125313283208017e-01
5.639097744360902498e-01
5.639097744360902498e-01
5.651629072681704224e-01
6.867167919799498366e-01
4.486215538847117545e-01
4.486215538847117545e-01
4.486215538847117545e-01
7.067669172932330435e-01
7.067669172932330435e-01
4.010025062656641381e-02
3.721804511278195560e-01
3.721804511278195560e-01
3.759398496240601295e-02
4.448621553884711810e-01
6.992481203007518964e-01
6.979949874686717237e-01
6.917293233082706383e-01
6.904761904761904656e-01
6.892230576441102929e-01
6.917293233082706383e-01
6.917293233082706383e-01
6.904761904761904656e-01
1.629072681704260561e-01
1.604010025062656553e-01
1.566416040100250540e-01
3.684210526315789269e-01
6.992481203007518964e-01
7.055137844611528708e-01
3.734335839598997286e-01
7.117794486215538452e-01
3.746867167919799568e-01
3.746867167919799568e-01
3.746867167919799568e-01
4.260651629072681468e-02
3.796992481203007586e-01
4.260651629072681468e-02
4.260651629072681468e-02
7.092731829573934998e-01
7.130325814536341289e-01
7.130325814536341289e-01
7.092731829573934998e-01
6.892230576441102929e-01
6.566416040100250262e-01
6.516290726817042245e-02
8.145363408521302806e-02
6.203007518796992414e-01
6.290726817042606722e-01
9.899749373433583410e-02
6.892230576441102929e-01
7.030075187969925254e-01
3.834586466165413321e-01
5.012531328320801727e-02
4.260651629072681468e-02
3.759398496240601295e-01
4.511278195488721554e-02
7.167919799498746469e-01
7.180451127819549306e-01
7.167919799498746469e-01
4.010025062656641381e-02
7.130325814536341289e-01
7.180451127819549306e-01
7.142857142857143016e-01
7.117794486215538452e-01
3.508771929824561209e-02
4.511278195488721554e-02
5.012531328320801727e-02
4.385964912280701511e-02
3.759398496240601295e-02
4.135338345864661425e-02
5.012531328320801727e-02
4.887218045112781684e-02
3.771929824561403577e-01
4.135338345864661425e-02
4.010025062656641381e-02
4.135338345864661425e-02
3.884711779448621338e-02
3.634085213032581252e-02
3.721804511278195560e-01
7.105263157894736725e-01
7.130325814536341289e-01
3.734335839598997286e-01
7.067669172932330435e-01
7.067669172932330435e-01
3.746867167919799568e-01
3.771929824561403577e-01
4.385964912280701511e-02
4.010025062656641381e-02
3.659147869674185261e-01
6.992481203007518964e-01
6.992481203007518964e-01
6.992481203007518964e-01
6.967418546365914400e-01
6.879699248120301203e-01
6.842105263157894912e-01
3.508771929824561209e-02
3.609022556390977243e-01
6.804511278195488622e-01
6.729323308270677151e-01
3.634085213032581252e-02
2.631578947368420907e-02
2.756892230576440950e-02
3.132832080200501079e-02
3.007518796992481036e-02
6.754385964912280604e-01
6.791979949874686895e-01
6.842105263157894912e-01
6.867167919799498366e-01
6.892230576441102929e-01
6.892230576441102929e-01
6.929824561403509220e-01
6.954887218045112673e-01
7.017543859649122417e-01
7.030075187969925254e-01
7.067669172932330435e-01
3.508771929824561209e-02
3.383458646616541166e-02
3.383458646616541166e-02
7.117794486215538452e-01
7.130325814536341289e-01
7.142857142857143016e-01
7.142857142857143016e-01
3.721804511278195560e-01
7.117794486215538452e-01
7.117794486215538452e-01
7.142857142857143016e-01
7.155388471177944743e-01
7.167919799498746469e-01
3.734335839598997286e-01
3.746867167919799568e-01
3.508771929824561209e-02
3.007518796992481036e-02
3.132832080200501079e-02
3.508771929824561209e-02
3.508771929824561209e-02
3.734335839598997286e-01
7.117794486215538452e-01
7.105263157894736725e-01
3.709273182957393278e-01
3.383458646616541166e-02
7.067669172932330435e-01
3.734335839598997286e-01
3.759398496240601295e-01
7.092731829573934998e-01
7.142857142857143016e-01
7.167919799498746469e-01
7.142857142857143016e-01
3.759398496240601295e-02
3.884711779448621338e-02
3.771929824561403577e-01
4.010025062656641381e-02
7.142857142857143016e-01
7.167919799498746469e-01
7.105263157894736725e-01
7.130325814536341289e-01
7.130325814536341289e-01
7.167919799498746469e-01
4.010025062656641381e-02
3.771929824561403577e-01
4.010025062656641381e-02
7.155388471177944743e-01
3.784461152882205304e-01
4.135338345864661425e-02
3.809523809523809312e-01
4.511278195488721554e-02
4.385964912280701511e-02
4.260651629072681468e-02
3.796992481203007586e-01
4.010025062656641381e-02
4.010025062656641381e-02
4.010025062656641381e-02
3.784461152882205304e-01
3.784461152882205304e-01
3.784461152882205304e-01
7.167919799498746469e-01
3.771929824561403577e-01
3.771929824561403577e-01
4.010025062656641381e-02
4.260651629072681468e-02
7.142857142857143016e-01
4.511278195488721554e-02
4.511278195488721554e-02
3.771929824561403577e-01
3.771929824561403577e-01
7.117794486215538452e-01
3.784461152882205304e-01
3.784461152882205304e-01
3.784461152882205304e-01
4.135338345864661425e-02
3.809523809523809312e-01
7.167919799498746469e-01
3.796992481203007586e-01
7.142857142857143016e-01
3.796992481203007586e-01
4.135338345864661425e-02
4.010025062656641381e-02
7.092731829573934998e-01
7.105263157894736725e-01
7.005012531328320691e-01
6.954887218045112673e-01
6.942355889724310947e-01
6.992481203007518964e-01
7.017543859649122417e-01
3.709273182957393278e-01
7.017543859649122417e-01
4.010025062656641381e-02
3.696741854636591551e-01
5.137844611528821770e-02
5.263157894736841813e-02
5.388471177944861856e-02
7.117794486215538452e-01
5.137844611528821770e-02
5.764411027568921986e-02
5.137844611528821770e-02
4.511278195488721554e-02
4.761904761904761640e-02
5.388471177944861856e-02
5.012531328320801727e-02
4.636591478696741597e-02
5.513784461152881899e-02
5.764411027568921986e-02
5.513784461152881899e-02
3.859649122807017330e-01
7.192982456140351033e-01
6.942355889724310947e-01
6.804511278195488622e-01
7.268170426065162504e-02
7.894736842105262720e-02
9.523809523809523281e-02
6.453634085213032501e-01
6.453634085213032501e-01
6.791979949874686895e-01
7.017543859649122417e-01
3.809523809523809312e-01
5.012531328320801727e-02
4.636591478696741597e-02
3.834586466165413321e-01
4.636591478696741597e-02
4.761904761904761640e-02
4.761904761904761640e-02
3.822055137844611594e-01
7.192982456140351033e-01
3.809523809523809312e-01
7.167919799498746469e-01
7.167919799498746469e-01
4.511278195488721554e-02
4.511278195488721554e-02
3.822055137844611594e-01
4.761904761904761640e-02
4.761904761904761640e-02
5.012531328320801727e-02
4.887218045112781684e-02
3.834586466165413321e-01
4.636591478696741597e-02
4.636591478696741597e-02
7.142857142857143016e-01
3.784461152882205304e-01
3.809523809523809312e-01
7.167919799498746469e-01
7.167919799498746469e-01
7.192982456140351033e-01
7.192982456140351033e-01
4.761904761904761640e-02
4.887218045112781684e-02
3.809523809523809312e-01
7.142857142857143016e-01
3.809523809523809312e-01
3.796992481203007586e-01
4.761904761904761640e-02
7.092731829573934998e-01
7.080200501253133272e-01
5.263157894736841813e-02
4.761904761904761640e-02
4.761904761904761640e-02
7.055137844611528708e-01
7.005012531328320691e-01
6.967418546365914400e-01
6.892230576441102929e-01
6.842105263157894912e-01
4.010025062656641381e-02
6.842105263157894912e-01
6.842105263157894912e-01
6.817042606516290348e-01
9.649122807017543879e-01
9.674185463659147333e-01
9.661654135338345606e-01
6.829573934837093185e-01
6.867167919799498366e-01
8.258145363408521122e-01
6.904761904761904656e-01
6.967418546365914400e-01
9.711779448621553623e-01
9.736842105263158187e-01
9.749373433583959914e-01
3.721804511278195560e-01
7.042606516290726981e-01
7.067669172932330435e-01
7.067669172932330435e-01
7.142857142857143016e-01
9.686716791979950170e-01
9.699248120300751896e-01
9.686716791979950170e-01
8.408521303258145174e-01
8.408521303258145174e-01
8.408521303258145174e-01
8.408521303258145174e-01
9.649122807017543879e-01
7.192982456140351033e-01
9.649122807017543879e-01
9.699248120300751896e-01
9.912280701754385692e-01
9.912280701754385692e-01
8.558897243107769226e-01
4.385964912280701511e-02
4.135338345864661425e-02
4.010025062656641381e-02
4.010025062656641381e-02
3.383458646616541166e-02
9.874686716791979402e-01
9.849624060150375948e-01
9.874686716791979402e-01
8.521303258145362935e-01
7.218045112781954487e-01
7.192982456140351033e-01
7.167919799498746469e-01
7.155388471177944743e-01
7.155388471177944743e-01
7.180451127819549306e-01
7.180451127819549306e-01
9.862155388471177675e-01
9.837092731829574221e-01
9.849624060150375948e-01
7.130325814536341289e-01
7.167919799498746469e-01
7.142857142857143016e-01
7.142857142857143016e-01
7.130325814536341289e-01
7.155388471177944743e-01
7.167919799498746469e-01
8.471177944862154918e-01
9.887218045112782239e-01
9.899749373433583965e-01
9.912280701754385692e-01
4.887218045112781684e-02
4.385964912280701511e-02
4.761904761904761640e-02
5.639097744360901943e-02
5.764411027568921986e-02
9.799498746867167931e-01
9.849624060150375948e-01
9.874686716791979402e-01
7.105263157894736725e-01
7.105263157894736725e-01
7.130325814536341289e-01
7.130325814536341289e-01
7.130325814536341289e-01
9.786967418546366204e-01
7.117794486215538452e-01
7.117794486215538452e-01
9.887218045112782239e-01
9.824561403508771384e-01
7.167919799498746469e-01
5.513784461152881899e-02
7.117794486215538452e-01
7.142857142857143016e-01
3.847117794486215603e-01
3.847117794486215603e-01
5.639097744360901943e-02
7.117794486215538452e-01
7.167919799498746469e-01
9.824561403508771384e-01
9.837092731829574221e-01
7.155388471177944743e-01
4.260651629072681468e-02
4.511278195488721554e-02
4.636591478696741597e-02
4.636591478696741597e-02
7.130325814536341289e-01
9.974937343358395436e-01
7.117794486215538452e-01
7.080200501253133272e-01
7.030075187969925254e-01
7.005012531328320691e-01
6.917293233082706383e-01
4.761904761904761640e-02
4.761904761904761640e-02
5.137844611528821770e-02
6.942355889724310947e-01
6.979949874686717237e-01
6.967418546365914400e-01
7.005012531328320691e-01
5.764411027568921986e-02
7.017543859649122417e-01
6.992481203007518964e-01
7.117794486215538452e-01
7.130325814536341289e-01
7.142857142857143016e-01
9.799498746867167931e-01
9.812030075187969658e-01
7.142857142857143016e-01
5.263157894736841813e-02
5.639097744360901943e-02
5.764411027568921986e-02
4.887218045112781684e-02
4.511278195488721554e-02
5.639097744360901943e-02
3.809523809523809312e-01
6.842105263157894912e-01
6.616541353383458279e-01
6.353383458646616466e-01
6.253132832080200432e-01
1.065162907268170367e-01
6.303258145363408449e-01
1.027568922305764354e-01
6.729323308270677151e-01
6.867167919799498366e-01
6.967418546365914400e-01
3.771929824561403577e-01
7.130325814536341289e-01
7.142857142857143016e-01
7.092731829573934998e-01
7.080200501253133272e-01
7.080200501253133272e-01
4.511278195488721554e-02
4.260651629072681468e-02
4.761904761904761640e-02
5.012531328320801727e-02
4.636591478696741597e-02
4.260651629072681468e-02
3.784461152882205304e-01
3.796992481203007586e-01
7.142857142857143016e-01
7.130325814536341289e-01
7.080200501253133272e-01
7.030075187969925254e-01
6.979949874686717237e-01
6.015037593984962072e-02
3.822055137844611594e-01
5.513784461152881899e-02
4.887218045112781684e-02
7.042606516290726981e-01
7.017543859649122417e-01
3.709273182957393278e-01
3.709273182957393278e-01
3.721804511278195560e-01
3.734335839598997286e-01
3.734335839598997286e-01
3.734335839598997286e-01
4.260651629072681468e-02
4.260651629072681468e-02
3.721804511278195560e-01
3.721804511278195560e-01
4.260651629072681468e-02
3.734335839598997286e-01
3.734335839598997286e-01
5.012531328320801727e-02
6.892230576441102929e-01
6.867167919799498366e-01
6.791979949874686895e-01
4.260651629072681468e-02
6.817042606516290348e-01
6.766917293233082331e-01
6.766917293233082331e-01
6.666666666666666297e-01
6.641604010025062843e-01
6.641604010025062843e-01
6.591478696741854826e-01
3.483709273182957200e-01
3.496240601503759482e-01
6.666666666666666297e-01
6.691729323308270860e-01
6.741854636591478878e-01
6.766917293233082331e-01
6.791979949874686895e-01
6.829573934837093185e-01
4.511278195488721554e-02
6.892230576441102929e-01
6.942355889724310947e-01
3.709273182957393278e-01
4.135338345864661425e-02
4.260651629072681468e-02
6.992481203007518964e-01
7.017543859649122417e-01
3.771929824561403577e-01
5.012531328320801727e-02
5.012531328320801727e-02
6.979949874686717237e-01
6.967418546365914400e-01
3.684210526315789269e-01
6.992481203007518964e-01
3.709273182957393278e-01
5.513784461152881899e-02
5.764411027568921986e-02
6.265664160401002158e-02
6.641604010025062288e-02
6.516290726817042245e-02
6.140350877192982115e-02
1.754385964912280604e-01
1.704260651629072587e-01
1.704260651629072587e-01
1.666666666666666574e-01
1.754385964912280604e-01
1.679197994987468578e-01
1.641604010025062566e-01
1.566416040100250540e-01
1.578947368421052544e-01
1.804511278195488622e-01
1.654135338345864570e-01
1.716791979949874591e-01
1.704260651629072587e-01
1.729323308270676596e-01
3.709273182957393278e-01
3.721804511278195560e-01
1.365914786967418471e-01
1.390977443609022479e-01
1.441102756892230496e-01
1.466165413533834505e-01
1.516290726817042522e-01
1.604010025062656553e-01
1.679197994987468578e-01
1.741854636591478600e-01
1.817042606516290626e-01
1.817042606516290626e-01
1.842105263157894635e-01
1.817042606516290626e-01
1.766917293233082609e-01
1.704260651629072587e-01
1.604010025062656553e-01
1.541353383458646531e-01
1.478696741854636509e-01
1.441102756892230496e-01
1.390977443609022479e-01
1.365914786967418471e-01
5.513784461152881899e-02
5.263157894736841813e-02
6.992481203007518964e-01
1.842105263157894635e-01
1.616541353383458557e-01
1.604010025062656553e-01
1.616541353383458557e-01
1.478696741854636509e-01
1.378446115288220475e-01
1.378446115288220475e-01
1.378446115288220475e-01
1.365914786967418471e-01
1.478696741854636509e-01
1.478696741854636509e-01
1.578947368421052544e-01
1.403508771929824483e-01
1.365914786967418471e-01
6.992481203007518964e-01
5.263157894736841813e-02
3.771929824561403577e-01
3.784461152882205304e-01
3.809523809523809312e-01
3.809523809523809312e-01
5.764411027568921986e-02
5.263157894736841813e-02
4.761904761904761640e-02
3.709273182957393278e-01
6.929824561403509220e-01
6.904761904761904656e-01
3.659147869674185261e-01
3.646616541353383534e-01
3.659147869674185261e-01
3.671679197994987542e-01
6.817042606516290348e-01
6.817042606516290348e-01
6.791979949874686895e-01
4.511278195488721554e-02
6.741854636591478878e-01
6.741854636591478878e-01
3.533834586466165217e-01
6.741854636591478878e-01
6.779448621553885168e-01
3.721804511278195560e-01
3.734335839598997286e-01
6.992481203007518964e-01
6.992481203007518964e-01
6.954887218045112673e-01
3.721804511278195560e-01
6.942355889724310947e-01
3.721804511278195560e-01
3.734335839598997286e-01
6.979949874686717237e-01
6.992481203007518964e-01
7.017543859649122417e-01
6.015037593984962072e-02
6.842105263157894912e-01
6.691729323308270860e-01
6.616541353383458279e-01
6.428571428571429047e-01
6.190476190476190688e-01
6.040100250626566636e-01
6.165413533834586124e-01
6.629072681704261116e-01
6.754385964912280604e-01
6.867167919799498366e-01
6.140350877192982115e-02
5.639097744360901943e-02
3.746867167919799568e-01
3.759398496240601295e-01
7.017543859649122417e-01
7.042606516290726981e-01
7.017543859649122417e-01
5.263157894736841813e-02
3.746867167919799568e-01
6.954887218045112673e-01
3.709273182957393278e-01
3.721804511278195560e-01
6.917293233082706383e-01
3.696741854636591551e-01
3.696741854636591551e-01
3.696741854636591551e-01
6.942355889724310947e-01
6.942355889724310947e-01
4.761904761904761640e-02
3.721804511278195560e-01
3.721804511278195560e-01
3.734335839598997286e-01
6.992481203007518964e-01
6.992481203007518964e-01
6.942355889724310947e-01
6.942355889724310947e-01
4.761904761904761640e-02
4.761904761904761640e-02
3.709273182957393278e-01
3.721804511278195560e-01
3.734335839598997286e-01
3.734335839598997286e-01
3.734335839598997286e-01
6.942355889724310947e-01
4.887218045112781684e-02
5.012531328320801727e-02
6.854636591478696639e-01
6.842105263157894912e-01
6.791979949874686895e-01
6.729323308270677151e-01
3.558897243107769226e-01
3.508771929824561209e-02
3.508771929824561209e-01
6.691729323308270860e-01
6.691729323308270860e-01
6.616541353383458279e-01
6.616541353383458279e-01
6.528822055137845082e-01
6.491228070175438791e-01
3.345864661654135430e-01
3.358395989974937157e-01
6.516290726817042245e-01
6.566416040100250262e-01
6.591478696741854826e-01
3.458646616541353191e-01
6.704260651629072587e-01
6.691729323308270860e-01
6.804511278195488622e-01
6.842105263157894912e-01
6.892230576441102929e-01
6.842105263157894912e-01
6.817042606516290348e-01
6.804511278195488622e-01
6.842105263157894912e-01
6.867167919799498366e-01
6.917293233082706383e-01
6.929824561403509220e-01
3.696741854636591551e-01
6.942355889724310947e-01
5.012531328320801727e-02
6.879699248120301203e-01
3.671679197994987542e-01
4.636591478696741597e-02
4.260651629072681468e-02
4.887218045112781684e-02
5.012531328320801727e-02
3.696741854636591551e-01
6.954887218045112673e-01
6.954887218045112673e-01
6.954887218045112673e-01
6.954887218045112673e-01
6.954887218045112673e-01
6.967418546365914400e-01
9.837092731829574221e-01
9.837092731829574221e-01
9.837092731829574221e-01
6.967418546365914400e-01
6.979949874686717237e-01
3.734335839598997286e-01
6.954887218045112673e-01
6.904761904761904656e-01
3.671679197994987542e-01
4.385964912280701511e-02
4.385964912280701511e-02
6.929824561403509220e-01
9.824561403508771384e-01
9.824561403508771384e-01
9.824561403508771384e-01
9.674185463659147333e-01
6.979949874686717237e-01
8.320802005012530866e-01
6.979949874686717237e-01
6.967418546365914400e-01
6.954887218045112673e-01
6.917293233082706383e-01
9.674185463659147333e-01
9.774436090225563367e-01
9.849624060150375948e-01
9.849624060150375948e-01
9.824561403508771384e-01
6.867167919799498366e-01
3.684210526315789269e-01
3.696741854636591551e-01
4.636591478696741597e-02
9.899749373433583965e-01
9.899749373433583965e-01
9.887218045112782239e-01
6.917293233082706383e-01
6.904761904761904656e-01
6.892230576441102929e-01
6.967418546365914400e-01
6.979949874686717237e-01
6.979949874686717237e-01
6.979949874686717237e-01
6.979949874686717237e-01
9.899749373433583965e-01
9.912280701754385692e-01
9.924812030075187419e-01
6.979949874686717237e-01
6.979949874686717237e-01
6.992481203007518964e-01
7.017543859649122417e-01
7.005012531328320691e-01
6.979949874686717237e-01
6.954887218045112673e-01
6.967418546365914400e-01
9.837092731829574221e-01
9.887218045112782239e-01
9.949874686716791983e-01
3.659147869674185261e-01
6.879699248120301203e-01
3.709273182957393278e-01
6.967418546365914400e-01
6.967418546365914400e-01
7.030075187969925254e-01
9.786967418546366204e-01
9.874686716791979402e-01
6.879699248120301203e-01
6.867167919799498366e-01
6.817042606516290348e-01
6.791979949874686895e-01
6.791979949874686895e-01
6.817042606516290348e-01
6.829573934837093185e-01
6.804511278195488622e-01
9.849624060150375948e-01
9.874686716791979402e-01
9.862155388471177675e-01
3.671679197994987542e-01
6.917293233082706383e-01
6.967418546365914400e-01
6.992481203007518964e-01
6.992481203007518964e-01
7.005012531328320691e-01
7.017543859649122417e-01
9.774436090225563367e-01
9.887218045112782239e-01
9.899749373433583965e-01
9.937343358395990256e-01
3.809523809523809312e-01
5.764411027568921986e-02
5.764411027568921986e-02
3.746867167919799568e-01
6.854636591478696639e-01
6.791979949874686895e-01
6.729323308270677151e-01
6.478696741854637065e-01
6.353383458646616466e-01
6.265664160401002158e-01
6.353383458646616466e-01
6.629072681704261116e-01
6.666666666666666297e-01
3.659147869674185261e-01
3.671679197994987542e-01
9.862155388471177675e-01
9.849624060150375948e-01
9.837092731829574221e-01
6.917293233082706383e-01
6.929824561403509220e-01
7.030075187969925254e-01
7.067669172932330435e-01
7.042606516290726981e-01
7.017543859649122417e-01
3.784461152882205304e-01
7.042606516290726981e-01
9.862155388471177675e-01
9.912280701754385692e-01
9.899749373433583965e-01
6.992481203007518964e-01
7.005012531328320691e-01
7.017543859649122417e-01
6.979949874686717237e-01
6.979949874686717237e-01
7.017543859649122417e-01
7.005012531328320691e-01
9.849624060150375948e-01
9.862155388471177675e-01
9.887218045112782239e-01
6.992481203007518964e-01
6.979949874686717237e-01
6.979949874686717237e-01
7.017543859649122417e-01
7.017543859649122417e-01
6.979949874686717237e-01
9.649122807017543879e-01
9.736842105263158187e-01
9.824561403508771384e-01
9.899749373433583965e-01
9.949874686716791983e-01
1.000000000000000000e+00
6.942355889724310947e-01
6.929824561403509220e-01
8.483709273182957755e-01
6.917293233082706383e-01
6.892230576441102929e-01
6.879699248120301203e-01
9.774436090225563367e-01
6.779448621553885168e-01
6.716791979949874314e-01
6.679197994987469134e-01
3.521303258145363491e-01
3.471177944862155473e-01
6.553884711779448535e-01
3.383458646616541166e-01
3.395989974937343447e-01
3.421052631578947456e-01
6.591478696741854826e-01
6.641604010025062843e-01
3.521303258145363491e-01
3.546365914786967499e-01
6.766917293233082331e-01
6.779448621553885168e-01
6.779448621553885168e-01
6.829573934837093185e-01
6.879699248120301203e-01
6.917293233082706383e-01
3.721804511278195560e-01
3.709273182957393278e-01
3.696741854636591551e-01
3.709273182957393278e-01
6.979949874686717237e-01
7.017543859649122417e-01
6.942355889724310947e-01
6.929824561403509220e-01
3.659147869674185261e-01
3.684210526315789269e-01
3.709273182957393278e-01
3.721804511278195560e-01
3.734335839598997286e-01
5.263157894736841813e-02
5.012531328320801727e-02
5.137844611528821770e-02
3.734335839598997286e-01
3.746867167919799568e-01
3.746867167919799568e-01
6.967418546365914400e-01
3.721804511278195560e-01
3.721804511278195560e-01
3.746867167919799568e-01
6.967418546365914400e-01
6.942355889724310947e-01
4.511278195488721554e-02
3.684210526315789269e-01
3.696741854636591551e-01
3.709273182957393278e-01
3.734335839598997286e-01
6.967418546365914400e-01
6.917293233082706383e-01
6.892230576441102929e-01
6.917293233082706383e-01
6.992481203007518964e-01
6.992481203007518964e-01
6.979949874686717237e-01
6.929824561403509220e-01
6.917293233082706383e-01
3.721804511278195560e-01
3.734335839598997286e-01
3.746867167919799568e-01
3.771929824561403577e-01
7.017543859649122417e-01
6.979949874686717237e-01
3.746867167919799568e-01
3.746867167919799568e-01
6.992481203007518964e-01
3.759398496240601295e-01
6.992481203007518964e-01
7.005012531328320691e-01
7.017543859649122417e-01
5.513784461152881899e-02
7.042606516290726981e-01
6.992481203007518964e-01
6.954887218045112673e-01
3.721804511278195560e-01
6.942355889724310947e-01
6.992481203007518964e-01
6.992481203007518964e-01
6.992481203007518964e-01
7.017543859649122417e-01
6.979949874686717237e-01
6.967418546365914400e-01
7.005012531328320691e-01
6.992481203007518964e-01
6.992481203007518964e-01
7.017543859649122417e-01
7.042606516290726981e-01
3.809523809523809312e-01
7.042606516290726981e-01
3.796992481203007586e-01
3.771929824561403577e-01
3.759398496240601295e-01
3.771929824561403577e-01
3.771929824561403577e-01
3.796992481203007586e-01
3.796992481203007586e-01
7.042606516290726981e-01
3.809523809523809312e-01
7.042606516290726981e-01
6.992481203007518964e-01
6.954887218045112673e-01
3.734335839598997286e-01
5.263157894736841813e-02
3.746867167919799568e-01
3.746867167919799568e-01
6.892230576441102929e-01
6.867167919799498366e-01
6.829573934837093185e-01
3.621553884711779525e-01
4.260651629072681468e-02
4.511278195488721554e-02
3.634085213032581252e-01
6.791979949874686895e-01
6.791979949874686895e-01
3.634085213032581252e-01
3.634085213032581252e-01
6.829573934837093185e-01
6.854636591478696639e-01
6.979949874686717237e-01
3.796992481203007586e-01
7.042606516290726981e-01
7.067669172932330435e-01
6.265664160401002158e-02
6.265664160401002158e-02
6.265664160401002158e-02
3.859649122807017330e-01
7.092731829573934998e-01
7.067669172932330435e-01
7.005012531328320691e-01
3.809523809523809312e-01
3.834586466165413321e-01
6.817042606516290348e-01
6.691729323308270860e-01
6.591478696741854826e-01
6.441102756892230774e-01
6.240601503759398705e-01
6.203007518796992414e-01
6.328320802005013013e-01
6.641604010025062843e-01
6.779448621553885168e-01
6.929824561403509220e-01
7.067669172932330435e-01
7.067669172932330435e-01
3.822055137844611594e-01
3.834586466165413321e-01
5.889724310776942029e-02
3.809523809523809312e-01
7.042606516290726981e-01
6.992481203007518964e-01
6.967418546365914400e-01
6.942355889724310947e-01
5.513784461152881899e-02
3.784461152882205304e-01
3.834586466165413321e-01
7.105263157894736725e-01
6.967418546365914400e-01
6.929824561403509220e-01
5.764411027568921986e-02
5.764411027568921986e-02
5.889724310776942029e-02
5.513784461152881899e-02
5.889724310776942029e-02
6.015037593984962072e-02
1.416040100250626488e-01
1.453634085213032501e-01
1.516290726817042522e-01
1.591478696741854548e-01
1.641604010025062566e-01
1.691729323308270583e-01
1.791979949874686617e-01
1.804511278195488622e-01
1.867167919799498643e-01
1.817042606516290626e-01
1.804511278195488622e-01
1.716791979949874591e-01
1.691729323308270583e-01
1.616541353383458557e-01
1.553884711779448535e-01
1.491228070175438514e-01
1.416040100250626488e-01
1.378446115288220475e-01
6.842105263157894912e-01
6.791979949874686895e-01
1.854636591478696639e-01
1.817042606516290626e-01
1.616541353383458557e-01
4.285714285714285476e-01
1.879699248120300648e-01
1.604010025062656553e-01
1.604010025062656553e-01
1.604010025062656553e-01
1.566416040100250540e-01
1.591478696741854548e-01
1.616541353383458557e-01
1.578947368421052544e-01
1.629072681704260561e-01
1.691729323308270583e-01
1.766917293233082609e-01
6.791979949874686895e-01
5.012531328320801727e-02
5.012531328320801727e-02
3.734335839598997286e-01
6.917293233082706383e-01
6.954887218045112673e-01
3.796992481203007586e-01
6.390977443609022202e-02
7.042606516290726981e-01
7.067669172932330435e-01
3.872180451127819611e-01
3.872180451127819611e-01
3.872180451127819611e-01
3.872180451127819611e-01
3.872180451127819611e-01
7.067669172932330435e-01
7.067669172932330435e-01
7.067669172932330435e-01
7.067669172932330435e-01
3.859649122807017330e-01
3.859649122807017330e-01
7.067669172932330435e-01
7.092731829573934998e-01
3.884711779448621338e-01
7.092731829573934998e-01
7.105263157894736725e-01
7.067669172932330435e-01
3.859649122807017330e-01
7.017543859649122417e-01
7.067669172932330435e-01
7.117794486215538452e-01
3.897243107769423620e-01
6.766917293233082331e-02
3.884711779448621338e-01
3.884711779448621338e-01
3.884711779448621338e-01
7.117794486215538452e-01
3.884711779448621338e-01
3.884711779448621338e-01
3.872180451127819611e-01
3.872180451127819611e-01
6.140350877192982115e-02
3.847117794486215603e-01
6.265664160401002158e-02
6.265664160401002158e-02
3.834586466165413321e-01
3.834586466165413321e-01
6.265664160401002158e-02
6.265664160401002158e-02
3.847117794486215603e-01
3.847117794486215603e-01
3.847117794486215603e-01
3.847117794486215603e-01
7.080200501253133272e-01
7.067669172932330435e-01
3.859649122807017330e-01
3.847117794486215603e-01
3.847117794486215603e-01
6.265664160401002158e-02
6.265664160401002158e-02
3.859649122807017330e-01
3.859649122807017330e-01
7.117794486215538452e-01
7.105263157894736725e-01
3.897243107769423620e-01
3.884711779448621338e-01
3.884711779448621338e-01
3.884711779448621338e-01
7.117794486215538452e-01
7.117794486215538452e-01
7.117794486215538452e-01
7.017543859649122417e-02
7.017543859649122417e-02
7.017543859649122417e-02
7.017543859649122417e-02
7.017543859649122417e-02
3.909774436090225347e-01
3.909774436090225347e-01
6.766917293233082331e-02
6.766917293233082331e-02
6.390977443609022202e-02
3.897243107769423620e-01
3.897243107769423620e-01
7.117794486215538452e-01
3.884711779448621338e-01
6.516290726817042245e-02
6.516290726817042245e-02
3.872180451127819611e-01
3.859649122807017330e-01
7.042606516290726981e-01
7.080200501253133272e-01
7.080200501253133272e-01
3.847117794486215603e-01
7.005012531328320691e-01
6.954887218045112673e-01
6.904761904761904656e-01
6.867167919799498366e-01
3.709273182957393278e-01
3.709273182957393278e-01
6.867167919799498366e-01
3.696741854636591551e-01
5.263157894736841813e-02
3.684210526315789269e-01
6.867167919799498366e-01
6.892230576441102929e-01
6.917293233082706383e-01
6.992481203007518964e-01
7.017543859649122417e-01
6.516290726817042245e-02
6.516290726817042245e-02
3.872180451127819611e-01
3.872180451127819611e-01
7.117794486215538452e-01
3.884711779448621338e-01
3.897243107769423620e-01
7.142857142857143016e-01
3.922305764411027629e-01
6.766917293233082331e-02
6.516290726817042245e-02
6.265664160401002158e-02
5.764411027568921986e-02
5.137844611528821770e-02
3.759398496240601295e-02
6.553884711779448535e-01
6.390977443609022757e-01
4.010025062656641381e-02
8.521303258145362935e-02
1.215538847117794419e-01
6.679197994987469134e-01
6.929824561403509220e-01
1.578947368421052544e-01
1.390977443609022479e-01
1.115288220551378384e-01
9.022556390977443108e-02
7.393483709273182547e-02
6.766917293233082331e-02
6.516290726817042245e-02
6.140350877192982115e-02
6.015037593984962072e-02
7.092731829573934998e-01
3.834586466165413321e-01
7.105263157894736725e-01
7.105263157894736725e-01
3.859649122807017330e-01
3.859649122807017330e-01
7.142857142857143016e-01
3.847117794486215603e-01
3.847117794486215603e-01
5.513784461152881899e-02
5.639097744360901943e-02
3.859649122807017330e-01
7.117794486215538452e-01
7.117794486215538452e-01
7.117794486215538452e-01
5.764411027568921986e-02
5.764411027568921986e-02
3.834586466165413321e-01
3.834586466165413321e-01
3.834586466165413321e-01
5.388471177944861856e-02
5.513784461152881899e-02
5.513784461152881899e-02
5.513784461152881899e-02
3.809523809523809312e-01
5.263157894736841813e-02
5.263157894736841813e-02
5.137844611528821770e-02
5.012531328320801727e-02
7.017543859649122417e-01
6.992481203007518964e-01
6.979949874686717237e-01
6.967418546365914400e-01
6.904761904761904656e-01
6.829573934837093185e-01
6.817042606516290348e-01
3.533834586466165217e-01
2.631578947368420907e-02
3.483709273182957200e-01
3.458646616541353191e-01
6.716791979949874314e-01
6.691729323308270860e-01
6.666666666666666297e-01
6.666666666666666297e-01
6.716791979949874314e-01
3.508771929824561209e-01
6.741854636591478878e-01
6.779448621553885168e-01
6.829573934837093185e-01
4.511278195488721554e-02
4.761904761904761640e-02
6.967418546365914400e-01
7.005012531328320691e-01
7.055137844611528708e-01
7.067669172932330435e-01
7.080200501253133272e-01
3.822055137844611594e-01
3.834586466165413321e-01
5.513784461152881899e-02
5.513784461152881899e-02
5.388471177944861856e-02
5.764411027568921986e-02
5.764411027568921986e-02
5.764411027568921986e-02
3.859649122807017330e-01
3.859649122807017330e-01
3.859649122807017330e-01
6.015037593984962072e-02
3.859649122807017330e-01
3.859649122807017330e-01
3.859649122807017330e-01
3.859649122807017330e-01
6.265664160401002158e-02
3.859649122807017330e-01
7.105263157894736725e-01
7.117794486215538452e-01
3.872180451127819611e-01
3.872180451127819611e-01
7.142857142857143016e-01
5.764411027568921986e-02
5.764411027568921986e-02
7.117794486215538452e-01
3.834586466165413321e-01
5.513784461152881899e-02
3.834586466165413321e-01
7.092731829573934998e-01
7.092731829573934998e-01
3.822055137844611594e-01
3.822055137844611594e-01
7.067669172932330435e-01
7.067669172932330435e-01
7.067669172932330435e-01
7.105263157894736725e-01
7.117794486215538452e-01
7.142857142857143016e-01
7.142857142857143016e-01
7.117794486215538452e-01
7.092731829573934998e-01
7.092731829573934998e-01
7.117794486215538452e-01
7.117794486215538452e-01
7.117794486215538452e-01
7.117794486215538452e-01
7.117794486215538452e-01
7.117794486215538452e-01
7.117794486215538452e-01
7.117794486215538452e-01
3.847117794486215603e-01
3.847117794486215603e-01
3.847117794486215603e-01
7.117794486215538452e-01
3.847117794486215603e-01
7.155388471177944743e-01
7.142857142857143016e-01
3.872180451127819611e-01
3.872180451127819611e-01
7.142857142857143016e-01
6.015037593984962072e-02
3.859649122807017330e-01
3.859649122807017330e-01
7.117794486215538452e-01
3.847117794486215603e-01
3.834586466165413321e-01
7.067669172932330435e-01
7.055137844611528708e-01
7.080200501253133272e-01
7.117794486215538452e-01
7.117794486215538452e-01
7.142857142857143016e-01
3.847117794486215603e-01
5.263157894736841813e-02
5.263157894736841813e-02
5.263157894736841813e-02
5.263157894736841813e-02
3.847117794486215603e-01
5.513784461152881899e-02
5.513784461152881899e-02
5.513784461152881899e-02
3.859649122807017330e-01
3.859649122807017330e-01
3.847117794486215603e-01
3.847117794486215603e-01
7.092731829573934998e-01
7.092731829573934998e-01
5.513784461152881899e-02
3.809523809523809312e-01
3.796992481203007586e-01
3.784461152882205304e-01
7.017543859649122417e-01
6.967418546365914400e-01
6.904761904761904656e-01
3.671679197994987542e-01
3.659147869674185261e-01
3.671679197994987542e-01
6.917293233082706383e-01
3.696741854636591551e-01
6.967418546365914400e-01
7.005012531328320691e-01
7.080200501253133272e-01
7.142857142857143016e-01
5.764411027568921986e-02
6.015037593984962072e-02
6.015037593984962072e-02
6.015037593984962072e-02
6.015037593984962072e-02
3.884711779448621338e-01
7.167919799498746469e-01
3.872180451127819611e-01
3.859649122807017330e-01
7.130325814536341289e-01
5.388471177944861856e-02
4.135338345864661425e-02
3.258145363408521122e-02
6.541353383458646809e-01
6.541353383458646809e-01
0.000000000000000000e+00
7.268170426065162504e-02
9.774436090225563367e-02
1.528822055137844527e-01
6.791979949874686895e-01
1.591478696741854548e-01
1.303258145363408449e-01
1.090225563909774376e-01
9.022556390977443108e-02
7.644110275689222633e-02
6.766917293233082331e-02
6.265664160401002158e-02
6.015037593984962072e-02
3.834586466165413321e-01
3.834586466165413321e-01
3.822055137844611594e-01
3.822055137844611594e-01
5.513784461152881899e-02
3.809523809523809312e-01
3.809523809523809312e-01
7.067669172932330435e-01
3.796992481203007586e-01
5.263157894736841813e-02
5.263157894736841813e-02
7.067669172932330435e-01
7.105263157894736725e-01
7.130325814536341289e-01
3.834586466165413321e-01
7.117794486215538452e-01
3.822055137844611594e-01
3.822055137844611594e-01
3.822055137844611594e-01
5.263157894736841813e-02
5.263157894736841813e-02
7.092731829573934998e-01
3.796992481203007586e-01
5.012531328320801727e-02
7.067669172932330435e-01
4.761904761904761640e-02
3.759398496240601295e-01
7.042606516290726981e-01
7.042606516290726981e-01
3.746867167919799568e-01
7.005012531328320691e-01
6.954887218045112673e-01
6.854636591478696639e-01
6.854636591478696639e-01
6.867167919799498366e-01
3.508771929824561209e-02
3.258145363408521122e-02
3.007518796992481036e-02
6.829573934837093185e-01
3.521303258145363491e-01
6.766917293233082331e-01
6.729323308270677151e-01
6.666666666666666297e-01
3.433583959899749183e-01
6.691729323308270860e-01
3.496240601503759482e-01
3.007518796992481036e-02
3.508771929824561209e-02
3.596491228070175517e-01
6.842105263157894912e-01
3.646616541353383534e-01
6.892230576441102929e-01
6.917293233082706383e-01
6.942355889724310947e-01
7.005012531328320691e-01
3.809523809523809312e-01
7.030075187969925254e-01
7.067669172932330435e-01
7.092731829573934998e-01
3.859649122807017330e-01
6.265664160401002158e-02
6.265664160401002158e-02
6.265664160401002158e-02
6.390977443609022202e-02
6.516290726817042245e-02
7.117794486215538452e-01
7.117794486215538452e-01
7.117794486215538452e-01
6.390977443609022202e-02
3.897243107769423620e-01
7.155388471177944743e-01
7.155388471177944743e-01
7.155388471177944743e-01
3.897243107769423620e-01
3.897243107769423620e-01
6.516290726817042245e-02
6.516290726817042245e-02
3.897243107769423620e-01
7.142857142857143016e-01
7.142857142857143016e-01
3.884711779448621338e-01
6.265664160401002158e-02
3.872180451127819611e-01
3.872180451127819611e-01
3.872180451127819611e-01
3.872180451127819611e-01
3.872180451127819611e-01
7.117794486215538452e-01
7.092731829573934998e-01
7.067669172932330435e-01
7.042606516290726981e-01
7.030075187969925254e-01
7.055137844611528708e-01
7.092731829573934998e-01
7.130325814536341289e-01
7.142857142857143016e-01
7.142857142857143016e-01
7.142857142857143016e-01
7.142857142857143016e-01
7.142857142857143016e-01
7.142857142857143016e-01
7.142857142857143016e-01
7.142857142857143016e-01
7.167919799498746469e-01
7.167919799498746469e-01
7.130325814536341289e-01
7.105263157894736725e-01
7.105263157894736725e-01
7.142857142857143016e-01
7.142857142857143016e-01
3.884711779448621338e-01
6.516290726817042245e-02
7.142857142857143016e-01
7.142857142857143016e-01
7.142857142857143016e-01
3.909774436090225347e-01
3.909774436090225347e-01
3.909774436090225347e-01
3.909774436090225347e-01
3.909774436090225347e-01
3.909774436090225347e-01
3.909774436090225347e-01
7.142857142857143016e-01
7.117794486215538452e-01
5.513784461152881899e-02
5.513784461152881899e-02
5.639097744360901943e-02
5.764411027568921986e-02
6.140350877192982115e-02
6.641604010025062288e-02
1.416040100250626488e-01
1.453634085213032501e-01
1.528822055137844527e-01
1.591478696741854548e-01
1.641604010025062566e-01
1.704260651629072587e-01
1.779448621553884613e-01
1.829573934837092630e-01
1.842105263157894635e-01
1.817042606516290626e-01
1.791979949874686617e-01
1.691729323308270583e-01
1.654135338345864570e-01
1.578947368421052544e-01
1.516290726817042522e-01
1.466165413533834505e-01
1.441102756892230496e-01
1.365914786967418471e-01
6.917293233082706383e-01
3.734335839598997286e-01
1.691729323308270583e-01
1.641604010025062566e-01
1.654135338345864570e-01
1.666666666666666574e-01
1.704260651629072587e-01
1.854636591478696639e-01
1.566416040100250540e-01
1.528822055137844527e-01
1.553884711779448535e-01
1.566416040100250540e-01
1.553884711779448535e-01
1.591478696741854548e-01
1.666666666666666574e-01
1.666666666666666574e-01
1.729323308270676596e-01
7.142857142857143016e-01
7.142857142857142461e-02
7.769423558897242676e-02
7.042606516290726981e-01
6.817042606516290348e-01
7.769423558897242676e-02
5.137844611528821770e-02
2.756892230576440950e-02
2.506265664160400863e-03
6.441102756892230774e-01
6.578947368421053099e-01
6.604010025062656553e-01
1.879699248120300648e-02
2.756892230576440950e-02
4.135338345864661425e-02
4.887218045112781684e-02
5.513784461152881899e-02
3.822055137844611594e-01
3.834586466165413321e-01
3.847117794486215603e-01
6.390977443609022202e-02
6.390977443609022202e-02
6.453634085213032223e-02
6.516290726817042245e-02
3.847117794486215603e-01
3.847117794486215603e-01
7.055137844611528708e-01
3.872180451127819611e-01
6.516290726817042245e-02
6.516290726817042245e-02
3.872180451127819611e-01
3.872180451127819611e-01
3.872180451127819611e-01
7.067669172932330435e-01
7.067669172932330435e-01
7.042606516290726981e-01
7.067669172932330435e-01
7.080200501253133272e-01
3.884711779448621338e-01
3.884711779448621338e-01
3.884711779448621338e-01
3.884711779448621338e-01
3.884711779448621338e-01
3.884711779448621338e-01
3.872180451127819611e-01
7.080200501253133272e-01
7.042606516290726981e-01
7.017543859649122417e-01
7.017543859649122417e-01
6.015037593984962072e-02
3.796992481203007586e-01
6.954887218045112673e-01
6.904761904761904656e-01
6.879699248120301203e-01
3.684210526315789269e-01
4.636591478696741597e-02
4.385964912280701511e-02
6.817042606516290348e-01
6.741854636591478878e-01
6.666666666666666297e-01
6.716791979949874314e-01
6.741854636591478878e-01
6.666666666666666297e-01
6.616541353383458279e-01
6.591478696741854826e-01
6.604010025062656553e-01
6.654135338345864570e-01
3.471177944862155473e-01
3.007518796992481036e-02
3.558897243107769226e-01
3.609022556390977243e-01
6.867167919799498366e-01
3.696741854636591551e-01
5.137844611528821770e-02
5.513784461152881899e-02
5.889724310776942029e-02
7.017543859649122417e-01
3.872180451127819611e-01
7.017543859649122417e-02
3.909774436090225347e-01
3.909774436090225347e-01
7.268170426065162504e-02
3.909774436090225347e-01
3.897243107769423620e-01
3.897243107769423620e-01
3.884711779448621338e-01
3.884711779448621338e-01
7.080200501253133272e-01
7.080200501253133272e-01
3.934837092731829356e-01
3.934837092731829356e-01
3.922305764411027629e-01
7.644110275689222633e-02
7.769423558897242676e-02
7.042606516290726981e-01
7.067669172932330435e-01
7.092731829573934998e-01
7.117794486215538452e-01
3.922305764411027629e-01
7.055137844611528708e-01
7.042606516290726981e-01
7.080200501253133272e-01
7.117794486215538452e-01
7.080200501253133272e-01
3.872180451127819611e-01
3.859649122807017330e-01
7.055137844611528708e-01
7.055137844611528708e-01
3.884711779448621338e-01
3.872180451127819611e-01
7.042606516290726981e-01
7.042606516290726981e-01
3.847117794486215603e-01
3.847117794486215603e-01
6.516290726817042245e-02
6.516290726817042245e-02
3.834586466165413321e-01
3.834586466165413321e-01
3.834586466165413321e-01
7.030075187969925254e-01
7.055137844611528708e-01
3.872180451127819611e-01
6.516290726817042245e-02
3.859649122807017330e-01
3.847117794486215603e-01
3.847117794486215603e-01
6.516290726817042245e-02
7.042606516290726981e-01
7.055137844611528708e-01
3.872180451127819611e-01
6.516290726817042245e-02
6.516290726817042245e-02
7.067669172932330435e-01
7.067669172932330435e-01
7.067669172932330435e-01
7.067669172932330435e-01
3.859649122807017330e-01
7.042606516290726981e-01
7.042606516290726981e-01
7.042606516290726981e-01
7.055137844611528708e-01
3.847117794486215603e-01
3.847117794486215603e-01
3.847117794486215603e-01
3.847117794486215603e-01
3.847117794486215603e-01
7.042606516290726981e-01
7.042606516290726981e-01
7.030075187969925254e-01
6.979949874686717237e-01
6.967418546365914400e-01
6.967418546365914400e-01
6.954887218045112673e-01
6.942355889724310947e-01
6.967418546365914400e-01
5.639097744360901943e-02
6.892230576441102929e-01
6.854636591478696639e-01
6.879699248120301203e-01
6.842105263157894912e-01
6.854636591478696639e-01
3.571428571428571508e-01
3.571428571428571508e-01
2.631578947368420907e-02
2.506265664160400863e-02
6.842105263157894912e-01
3.533834586466165217e-01
2.005012531328320691e-02
6.904761904761904656e-01
6.929824561403509220e-01
7.005012531328320691e-01
2.756892230576440950e-02
3.007518796992481036e-02
3.684210526315789269e-01
7.042606516290726981e-01
7.067669172932330435e-01
7.080200501253133272e-01
7.117794486215538452e-01
7.117794486215538452e-01
7.130325814536341289e-01
7.092731829573934998e-01
3.759398496240601295e-01
7.092731829573934998e-01
6.942355889724310947e-01
6.741854636591478878e-01
6.478696741854637065e-01
6.265664160401002158e-01
6.177944862155388961e-01
6.265664160401002158e-01
6.403508771929824483e-01
6.679197994987469134e-01
6.804511278195488622e-01
3.433583959899749183e-01
0.000000000000000000e+00
1.754385964912280604e-02
2.506265664160400863e-02
2.882205513784460993e-02
3.508771929824561209e-02
3.734335839598997286e-01
7.117794486215538452e-01
7.092731829573934998e-01
7.092731829573934998e-01
3.734335839598997286e-01
3.734335839598997286e-01
7.067669172932330435e-01
3.734335839598997286e-01
3.734335839598997286e-01
4.010025062656641381e-02
3.734335839598997286e-01
7.042606516290726981e-01
3.734335839598997286e-01
7.067669172932330435e-01
7.092731829573934998e-01
7.117794486215538452e-01
7.092731829573934998e-01
3.746867167919799568e-01
3.746867167919799568e-01
3.746867167919799568e-01
3.746867167919799568e-01
3.746867167919799568e-01
3.746867167919799568e-01
4.260651629072681468e-02
7.042606516290726981e-01
7.042606516290726981e-01
7.017543859649122417e-01
7.055137844611528708e-01
7.067669172932330435e-01
7.067669172932330435e-01
4.260651629072681468e-02
4.010025062656641381e-02
3.709273182957393278e-01
6.979949874686717237e-01
6.929824561403509220e-01
6.879699248120301203e-01
6.829573934837093185e-01
2.756892230576440950e-02
6.754385964912280604e-01
6.716791979949874314e-01
6.691729323308270860e-01
3.421052631578947456e-01
3.383458646616541166e-01
6.566416040100250262e-01
6.553884711779448535e-01
6.553884711779448535e-01
3.333333333333333148e-01
3.333333333333333148e-01
1.127819548872180389e-02
3.383458646616541166e-01
6.604010025062656553e-01
6.729323308270677151e-01
6.779448621553885168e-01
6.829573934837093185e-01
6.892230576441102929e-01
6.917293233082706383e-01
6.892230576441102929e-01
6.892230576441102929e-01
6.917293233082706383e-01
6.979949874686717237e-01
7.042606516290726981e-01
3.746867167919799568e-01
3.746867167919799568e-01
3.746867167919799568e-01
6.992481203007518964e-01
6.979949874686717237e-01
6.992481203007518964e-01
7.017543859649122417e-01
7.017543859649122417e-01
7.067669172932330435e-01
7.080200501253133272e-01
7.067669172932330435e-01
7.030075187969925254e-01
7.042606516290726981e-01
7.042606516290726981e-01
3.746867167919799568e-01
7.017543859649122417e-01
3.734335839598997286e-01
7.017543859649122417e-01
7.042606516290726981e-01
7.067669172932330435e-01
3.771929824561403577e-01
7.067669172932330435e-01
3.759398496240601295e-01
7.042606516290726981e-01
7.042606516290726981e-01
3.759398496240601295e-01
4.761904761904761640e-02
3.759398496240601295e-01
6.992481203007518964e-01
6.967418546365914400e-01
3.721804511278195560e-01
3.721804511278195560e-01
4.761904761904761640e-02
3.734335839598997286e-01
4.761904761904761640e-02
7.017543859649122417e-01
6.992481203007518964e-01
6.992481203007518964e-01
7.005012531328320691e-01
7.017543859649122417e-01
7.042606516290726981e-01
3.759398496240601295e-01
4.761904761904761640e-02
4.761904761904761640e-02
3.771929824561403577e-01
3.771929824561403577e-01
3.771929824561403577e-01
4.761904761904761640e-02
7.042606516290726981e-01
3.759398496240601295e-01
3.771929824561403577e-01
7.055137844611528708e-01
3.796992481203007586e-01
3.796992481203007586e-01
3.796992481203007586e-01
3.796992481203007586e-01
3.796992481203007586e-01
5.263157894736841813e-02
3.796992481203007586e-01
7.067669172932330435e-01
7.067669172932330435e-01
3.784461152882205304e-01
3.784461152882205304e-01
3.784461152882205304e-01
3.784461152882205304e-01
3.784461152882205304e-01
3.784461152882205304e-01
5.012531328320801727e-02
3.771929824561403577e-01
3.759398496240601295e-01
3.759398496240601295e-01
7.042606516290726981e-01
7.080200501253133272e-01
7.117794486215538452e-01
7.117794486215538452e-01
7.092731829573934998e-01
3.796992481203007586e-01
3.796992481203007586e-01
5.137844611528821770e-02
5.263157894736841813e-02
5.263157894736841813e-02
7.067669172932330435e-01
7.067669172932330435e-01
7.030075187969925254e-01
7.030075187969925254e-01
7.042606516290726981e-01
7.017543859649122417e-01
6.979949874686717237e-01
6.879699248120301203e-01
6.879699248120301203e-01
3.659147869674185261e-01
3.659147869674185261e-01
4.761904761904761640e-02
4.511278195488721554e-02
4.511278195488721554e-02
6.817042606516290348e-01
6.804511278195488622e-01
6.804511278195488622e-01
6.842105263157894912e-01
6.867167919799498366e-01
3.696741854636591551e-01
5.263157894736841813e-02
5.513784461152881899e-02
6.992481203007518964e-01
7.017543859649122417e-01
7.055137844611528708e-01
3.847117794486215603e-01
3.834586466165413321e-01
3.834586466165413321e-01
7.092731829573934998e-01
7.130325814536341289e-01
3.859649122807017330e-01
7.117794486215538452e-01
7.055137844611528708e-01
6.854636591478696639e-01
6.553884711779448535e-01
4.761904761904761640e-02
1.002506265664160345e-02
6.102756892230576380e-01
6.303258145363408449e-01
6.541353383458646809e-01
6.654135338345864570e-01
6.741854636591478878e-01
1.629072681704260561e-02
2.631578947368420907e-02
3.634085213032581252e-02
4.636591478696741597e-02
7.042606516290726981e-01
6.979949874686717237e-01
3.734335839598997286e-01
3.759398496240601295e-01
7.030075187969925254e-01
7.080200501253133272e-01
7.117794486215538452e-01
3.847117794486215603e-01
7.092731829573934998e-01
3.834586466165413321e-01
7.067669172932330435e-01
3.822055137844611594e-01
7.017543859649122417e-01
6.992481203007518964e-01
6.992481203007518964e-01
7.055137844611528708e-01
7.067669172932330435e-01
6.992481203007518964e-01
7.017543859649122417e-01
7.042606516290726981e-01
5.764411027568921986e-02
5.764411027568921986e-02
7.105263157894736725e-01
7.117794486215538452e-01
7.117794486215538452e-01
7.092731829573934998e-01
7.067669172932330435e-01
7.017543859649122417e-01
7.017543859649122417e-01
7.042606516290726981e-01
7.042606516290726981e-01
5.513784461152881899e-02
3.784461152882205304e-01
6.992481203007518964e-01
6.954887218045112673e-01
6.929824561403509220e-01
6.892230576441102929e-01
6.854636591478696639e-01
4.385964912280701511e-02
6.716791979949874314e-01
6.741854636591478878e-01
3.508771929824561209e-01
3.496240601503759482e-01
6.566416040100250262e-01
