2.000000000000000111e-01
2.000000000000000111e-01
2.044935064935065050e-01
2.089870129870130266e-01
2.134805194805194373e-01
2.179740259740259589e-01
2.224675324675324528e-01
2.269610389610389745e-01
2.314545454545454961e-01
2.359480519480519067e-01
2.404415584415584006e-01
2.449350649350649223e-01
2.494285714285714439e-01
2.539220779220779378e-01
2.584155844155843762e-01
2.629090909090908701e-01
2.674025974025974195e-01
2.718961038961039134e-01
2.763896103896104073e-01
2.808831168831168457e-01
2.853766233766233396e-01
2.898701298701298334e-01
2.943636363636363829e-01
2.988571428571428767e-01
3.033506493506493151e-01
3.078441558441558090e-01
3.123376623376623029e-01
3.168311688311688523e-01
3.213246753246753462e-01
3.258181818181817291e-01
3.303116883116882785e-01
3.348051948051947724e-01
3.392987012987013218e-01
3.437922077922078157e-01
3.482857142857141985e-01
3.527792207792207479e-01
3.572727272727272418e-01
3.617662337662337912e-01
3.662597402597402851e-01
3.707532467532466680e-01
3.752467532467533284e-01
3.797402597402597113e-01
3.842337662337662052e-01
3.887272727272727546e-01
3.932207792207791375e-01
3.977142857142857979e-01
4.022077922077921808e-01
4.067012987012985636e-01
4.111948051948052241e-01
4.156883116883116069e-01
4.201818181818182674e-01
4.246753246753246502e-01
4.291688311688312552e-01
4.336623376623376935e-01
4.381558441558440764e-01
4.426493506493506813e-01
4.471428571428571197e-01
4.516363636363635026e-01
4.561298701298701630e-01
4.606233766233765459e-01
4.651168831168831508e-01
4.696103896103895892e-01
4.741038961038961941e-01
4.785974025974026325e-01
4.830909090909090153e-01
4.875844155844156202e-01
4.920779220779220586e-01
4.965714285714284415e-01
5.010649350649351019e-01
5.055584415584414293e-01
5.100519480519480897e-01
5.145454545454545281e-01
5.190389610389611885e-01
5.235324675324675159e-01
5.280259740259739543e-01
5.325194805194806147e-01
5.370129870129869420e-01
5.415064935064933804e-01
5.460000000000000409e-01
3.900000000000000133e-01
3.880000000000000115e-01
3.880000000000000115e-01
2.320000000000000118e-01
2.320000000000000118e-01
2.320000000000000118e-01
2.320000000000000118e-01
2.320000000000000118e-01
2.320000000000000118e-01
2.320000000000000118e-01
2.320000000000000118e-01
2.320000000000000118e-01
2.320000000000000118e-01
2.320000000000000118e-01
2.320000000000000118e-01
2.320000000000000118e-01
2.320000000000000118e-01
2.320000000000000118e-01
2.320000000000000118e-01
2.320000000000000118e-01
2.320000000000000118e-01
2.320000000000000118e-01
2.320000000000000118e-01
2.320000000000000118e-01
2.320000000000000118e-01
2.320000000000000118e-01
2.320000000000000118e-01
2.320000000000000118e-01
2.320000000000000118e-01
2.320000000000000118e-01
2.320000000000000118e-01
2.320000000000000118e-01
2.320000000000000118e-01
2.320000000000000118e-01
2.320000000000000118e-01
2.320000000000000118e-01
2.320000000000000118e-01
2.320000000000000118e-01
2.320000000000000118e-01
3.840000000000000080e-01
3.900000000000000133e-01
3.920000000000000151e-01
5.400000000000000355e-01
7.139999999999999680e-01
7.159999999999999698e-01
7.159999999999999698e-01
5.659999999999999476e-01
5.659999999999999476e-01
5.679999999999999494e-01
5.679999999999999494e-01
5.679999999999999494e-01
5.679999999999999494e-01
5.659999999999999476e-01
5.659999999999999476e-01
5.659999999999999476e-01
5.679999999999999494e-01
5.679999999999999494e-01
5.679999999999999494e-01
5.659999999999999476e-01
5.659999999999999476e-01
5.639999999999999458e-01
5.639999999999999458e-01
5.639999999999999458e-01
5.639999999999999458e-01
5.639999999999999458e-01
5.639999999999999458e-01
5.620000000000000551e-01
5.620000000000000551e-01
5.639999999999999458e-01
5.639999999999999458e-01
5.639999999999999458e-01
5.639999999999999458e-01
5.639999999999999458e-01
5.639999999999999458e-01
5.639999999999999458e-01
5.639999999999999458e-01
5.639999999999999458e-01
5.639999999999999458e-01
5.639999999999999458e-01
5.659999999999999476e-01
5.679999999999999494e-01
5.679999999999999494e-01
5.679999999999999494e-01
5.679999999999999494e-01
5.719999999999999529e-01
5.699999999999999512e-01
5.679999999999999494e-01
5.639999999999999458e-01
5.639999999999999458e-01
5.639999999999999458e-01
5.659999999999999476e-01
5.659999999999999476e-01
5.639999999999999458e-01
5.600000000000000533e-01
5.600000000000000533e-01
5.639999999999999458e-01
5.659999999999999476e-01
5.659999999999999476e-01
5.679999999999999494e-01
5.659999999999999476e-01
5.639999999999999458e-01
5.639999999999999458e-01
5.639999999999999458e-01
5.639999999999999458e-01
5.639999999999999458e-01
5.639999999999999458e-01
5.639999999999999458e-01
5.679999999999999494e-01
5.719999999999999529e-01
5.679999999999999494e-01
5.659999999999999476e-01
5.620000000000000551e-01
5.620000000000000551e-01
5.620000000000000551e-01
5.620000000000000551e-01
5.620000000000000551e-01
5.639999999999999458e-01
5.639999999999999458e-01
5.659999999999999476e-01
5.639999999999999458e-01
5.620000000000000551e-01
5.600000000000000533e-01
5.620000000000000551e-01
5.659999999999999476e-01
5.679999999999999494e-01
5.679999999999999494e-01
5.679999999999999494e-01
5.639999999999999458e-01
5.639999999999999458e-01
5.620000000000000551e-01
5.600000000000000533e-01
5.580000000000000515e-01
5.600000000000000533e-01
5.620000000000000551e-01
5.639999999999999458e-01
5.639999999999999458e-01
5.620000000000000551e-01
5.620000000000000551e-01
5.620000000000000551e-01
5.620000000000000551e-01
5.620000000000000551e-01
5.639999999999999458e-01
5.639999999999999458e-01
5.639999999999999458e-01
5.600000000000000533e-01
5.600000000000000533e-01
5.639999999999999458e-01
5.659999999999999476e-01
5.679999999999999494e-01
5.679999999999999494e-01
5.659999999999999476e-01
5.659999999999999476e-01
5.639999999999999458e-01
5.639999999999999458e-01
5.639999999999999458e-01
5.639999999999999458e-01
5.639999999999999458e-01
5.639999999999999458e-01
5.659999999999999476e-01
5.659999999999999476e-01
5.659999999999999476e-01
5.659999999999999476e-01
5.679999999999999494e-01
5.679999999999999494e-01
5.679999999999999494e-01
5.679999999999999494e-01
5.679999999999999494e-01
5.679999999999999494e-01
5.679999999999999494e-01
5.679999999999999494e-01
5.679999999999999494e-01
5.679999999999999494e-01
5.679999999999999494e-01
5.659999999999999476e-01
5.639999999999999458e-01
5.639999999999999458e-01
5.659999999999999476e-01
5.639999999999999458e-01
5.659999999999999476e-01
5.639999999999999458e-01
5.620000000000000551e-01
5.639999999999999458e-01
5.639999999999999458e-01
5.679999999999999494e-01
5.639999999999999458e-01
5.639999999999999458e-01
5.639999999999999458e-01
5.659999999999999476e-01
5.659999999999999476e-01
5.639999999999999458e-01
5.659999999999999476e-01
5.679999999999999494e-01
5.679999999999999494e-01
5.659999999999999476e-01
5.659999999999999476e-01
5.639999999999999458e-01
5.600000000000000533e-01
5.600000000000000533e-01
5.600000000000000533e-01
5.540000000000000480e-01
5.520000000000000462e-01
5.500000000000000444e-01
5.500000000000000444e-01
5.500000000000000444e-01
5.480000000000000426e-01
5.500000000000000444e-01
5.500000000000000444e-01
5.500000000000000444e-01
5.420000000000000373e-01
5.340000000000000302e-01
5.320000000000000284e-01
5.340000000000000302e-01
5.320000000000000284e-01
5.360000000000000320e-01
5.420000000000000373e-01
5.480000000000000426e-01
5.480000000000000426e-01
5.580000000000000515e-01
5.600000000000000533e-01
5.679999999999999494e-01
5.679999999999999494e-01
5.699999999999999512e-01
5.699999999999999512e-01
5.699999999999999512e-01
5.719999999999999529e-01
5.759999999999999565e-01
5.779999999999999583e-01
5.759999999999999565e-01
5.719999999999999529e-01
5.739999999999999547e-01
5.759999999999999565e-01
5.759999999999999565e-01
5.679999999999999494e-01
5.520000000000000462e-01
5.180000000000000160e-01
4.779999999999999805e-01
4.420000000000000040e-01
3.900000000000000133e-01
4.239999999999999880e-01
4.819999999999999840e-01
5.580000000000000515e-01
6.139999999999999902e-01
6.400000000000000133e-01
6.119999999999999885e-01
5.859999999999999654e-01
5.719999999999999529e-01
5.679999999999999494e-01
5.659999999999999476e-01
5.659999999999999476e-01
5.639999999999999458e-01
5.600000000000000533e-01
5.659999999999999476e-01
5.659999999999999476e-01
5.739999999999999547e-01
5.739999999999999547e-01
5.719999999999999529e-01
5.719999999999999529e-01
5.699999999999999512e-01
5.659999999999999476e-01
5.600000000000000533e-01
5.560000000000000497e-01
5.560000000000000497e-01
5.560000000000000497e-01
5.500000000000000444e-01
5.460000000000000409e-01
5.480000000000000426e-01
5.520000000000000462e-01
5.480000000000000426e-01
5.480000000000000426e-01
5.460000000000000409e-01
5.420000000000000373e-01
5.400000000000000355e-01
5.320000000000000284e-01
5.300000000000000266e-01
5.240000000000000213e-01
5.180000000000000160e-01
5.140000000000000124e-01
5.080000000000000071e-01
5.020000000000000018e-01
5.000000000000000000e-01
4.959999999999999964e-01
4.859999999999999876e-01
4.779999999999999805e-01
4.719999999999999751e-01
4.699999999999999734e-01
4.600000000000000200e-01
4.540000000000000147e-01
4.500000000000000111e-01
4.440000000000000058e-01
4.420000000000000040e-01
4.339999999999999969e-01
4.299999999999999933e-01
4.279999999999999916e-01
4.279999999999999916e-01
4.339999999999999969e-01
4.380000000000000004e-01
4.520000000000000129e-01
4.640000000000000235e-01
4.759999999999999787e-01
4.879999999999999893e-01
5.000000000000000000e-01
5.100000000000000089e-01
5.200000000000000178e-01
5.320000000000000284e-01
5.420000000000000373e-01
5.460000000000000409e-01
5.560000000000000497e-01
5.560000000000000497e-01
5.560000000000000497e-01
5.540000000000000480e-01
5.540000000000000480e-01
5.520000000000000462e-01
5.520000000000000462e-01
5.500000000000000444e-01
5.560000000000000497e-01
5.560000000000000497e-01
5.580000000000000515e-01
5.600000000000000533e-01
5.639999999999999458e-01
5.659999999999999476e-01
5.639999999999999458e-01
5.580000000000000515e-01
5.600000000000000533e-01
5.639999999999999458e-01
5.679999999999999494e-01
5.639999999999999458e-01
5.620000000000000551e-01
5.600000000000000533e-01
5.600000000000000533e-01
5.540000000000000480e-01
5.540000000000000480e-01
5.500000000000000444e-01
5.500000000000000444e-01
5.480000000000000426e-01
5.540000000000000480e-01
5.560000000000000497e-01
5.600000000000000533e-01
5.600000000000000533e-01
5.620000000000000551e-01
5.639999999999999458e-01
5.639999999999999458e-01
5.639999999999999458e-01
5.639999999999999458e-01
5.639999999999999458e-01
5.639999999999999458e-01
5.659999999999999476e-01
5.679999999999999494e-01
5.679999999999999494e-01
5.639999999999999458e-01
5.639999999999999458e-01
5.659999999999999476e-01
5.679999999999999494e-01
5.639999999999999458e-01
5.639999999999999458e-01
5.659999999999999476e-01
5.719999999999999529e-01
5.679999999999999494e-01
5.659999999999999476e-01
5.679999999999999494e-01
5.679999999999999494e-01
5.699999999999999512e-01
5.699999999999999512e-01
5.699999999999999512e-01
5.699999999999999512e-01
5.679999999999999494e-01
5.679999999999999494e-01
5.659999999999999476e-01
5.659999999999999476e-01
5.659999999999999476e-01
5.659999999999999476e-01
5.659999999999999476e-01
5.659999999999999476e-01
5.659999999999999476e-01
5.679999999999999494e-01
5.699999999999999512e-01
5.759999999999999565e-01
5.779999999999999583e-01
5.699999999999999512e-01
5.659999999999999476e-01
5.639999999999999458e-01
5.639999999999999458e-01
5.639999999999999458e-01
5.639999999999999458e-01
5.679999999999999494e-01
5.679999999999999494e-01
5.659999999999999476e-01
5.639999999999999458e-01
5.639999999999999458e-01
5.639999999999999458e-01
5.659999999999999476e-01
5.679999999999999494e-01
5.679999999999999494e-01
5.659999999999999476e-01
5.659999999999999476e-01
5.620000000000000551e-01
5.639999999999999458e-01
5.639999999999999458e-01
5.679999999999999494e-01
5.719999999999999529e-01
5.699999999999999512e-01
5.699999999999999512e-01
5.739999999999999547e-01
5.779999999999999583e-01
5.759999999999999565e-01
5.679999999999999494e-01
5.620000000000000551e-01
5.600000000000000533e-01
5.580000000000000515e-01
5.600000000000000533e-01
5.639999999999999458e-01
5.659999999999999476e-01
5.639999999999999458e-01
5.639999999999999458e-01
5.620000000000000551e-01
5.620000000000000551e-01
5.600000000000000533e-01
5.600000000000000533e-01
5.600000000000000533e-01
5.600000000000000533e-01
5.639999999999999458e-01
5.620000000000000551e-01
5.580000000000000515e-01
5.560000000000000497e-01
5.600000000000000533e-01
5.639999999999999458e-01
5.639999999999999458e-01
5.639999999999999458e-01
5.620000000000000551e-01
5.620000000000000551e-01
5.620000000000000551e-01
5.620000000000000551e-01
5.620000000000000551e-01
5.620000000000000551e-01
5.620000000000000551e-01
5.620000000000000551e-01
5.620000000000000551e-01
5.620000000000000551e-01
5.639999999999999458e-01
5.580000000000000515e-01
5.560000000000000497e-01
5.500000000000000444e-01
5.500000000000000444e-01
5.500000000000000444e-01
5.540000000000000480e-01
5.540000000000000480e-01
5.520000000000000462e-01
5.520000000000000462e-01
5.520000000000000462e-01
5.520000000000000462e-01
5.520000000000000462e-01
5.520000000000000462e-01
5.540000000000000480e-01
5.520000000000000462e-01
5.480000000000000426e-01
5.500000000000000444e-01
5.480000000000000426e-01
5.480000000000000426e-01
5.420000000000000373e-01
5.380000000000000338e-01
5.360000000000000320e-01
5.340000000000000302e-01
5.340000000000000302e-01
5.320000000000000284e-01
5.240000000000000213e-01
5.200000000000000178e-01
5.100000000000000089e-01
5.080000000000000071e-01
5.080000000000000071e-01
5.140000000000000124e-01
5.180000000000000160e-01
5.180000000000000160e-01
5.140000000000000124e-01
5.140000000000000124e-01
5.180000000000000160e-01
5.220000000000000195e-01
5.260000000000000231e-01
5.320000000000000284e-01
5.360000000000000320e-01
5.400000000000000355e-01
5.400000000000000355e-01
5.400000000000000355e-01
5.380000000000000338e-01
5.420000000000000373e-01
5.420000000000000373e-01
5.420000000000000373e-01
5.440000000000000391e-01
5.460000000000000409e-01
5.460000000000000409e-01
5.440000000000000391e-01
5.340000000000000302e-01
5.120000000000000107e-01
4.779999999999999805e-01
4.319999999999999951e-01
3.840000000000000080e-01
3.619999999999999885e-01
4.219999999999999862e-01
4.739999999999999769e-01
5.400000000000000355e-01
5.999999999999999778e-01
5.959999999999999742e-01
5.600000000000000533e-01
5.540000000000000480e-01
5.420000000000000373e-01
5.400000000000000355e-01
5.400000000000000355e-01
5.380000000000000338e-01
5.380000000000000338e-01
5.360000000000000320e-01
5.360000000000000320e-01
5.360000000000000320e-01
5.340000000000000302e-01
5.320000000000000284e-01
5.320000000000000284e-01
5.300000000000000266e-01
5.300000000000000266e-01
5.300000000000000266e-01
5.280000000000000249e-01
5.280000000000000249e-01
5.280000000000000249e-01
5.240000000000000213e-01
5.240000000000000213e-01
5.200000000000000178e-01
5.180000000000000160e-01
5.180000000000000160e-01
5.160000000000000142e-01
5.160000000000000142e-01
5.120000000000000107e-01
5.080000000000000071e-01
5.020000000000000018e-01
5.480000000000000426e-01
5.480000000000000426e-01
5.480000000000000426e-01
5.480000000000000426e-01
5.480000000000000426e-01
5.480000000000000426e-01
7.399999999999999911e-01
7.319999999999999840e-01
7.279999999999999805e-01
7.039999999999999591e-01
7.019999999999999574e-01
6.999999999999999556e-01
7.239999999999999769e-01
7.139999999999999680e-01
7.039999999999999591e-01
7.059999999999999609e-01
7.119999999999999662e-01
7.239999999999999769e-01
7.259999999999999787e-01
7.339999999999999858e-01
6.999999999999999556e-01
6.979999999999999538e-01
6.899999999999999467e-01
6.879999999999999449e-01
6.800000000000000488e-01
6.800000000000000488e-01
6.760000000000000453e-01
6.760000000000000453e-01
7.159999999999999698e-01
7.299999999999999822e-01
7.399999999999999911e-01
6.780000000000000471e-01
5.999999999999999778e-01
7.459999999999999964e-01
7.359999999999999876e-01
7.259999999999999787e-01
7.139999999999999680e-01
7.059999999999999609e-01
6.939999999999999503e-01
6.879999999999999449e-01
6.840000000000000524e-01
6.800000000000000488e-01
5.739999999999999547e-01
5.739999999999999547e-01
5.739999999999999547e-01
6.840000000000000524e-01
7.159999999999999698e-01
7.179999999999999716e-01
7.139999999999999680e-01
6.800000000000000488e-01
6.800000000000000488e-01
6.820000000000000506e-01
6.820000000000000506e-01
7.199999999999999734e-01
7.039999999999999591e-01
6.879999999999999449e-01
7.139999999999999680e-01
7.039999999999999591e-01
7.099999999999999645e-01
7.099999999999999645e-01
7.500000000000000000e-01
7.560000000000000053e-01
6.630000000000000338e-01
5.699999999999999512e-01
5.699999999999999512e-01
5.679999999999999494e-01
5.699999999999999512e-01
5.739999999999999547e-01
5.799999999999999600e-01
5.799999999999999600e-01
5.779999999999999583e-01
5.759999999999999565e-01
5.739999999999999547e-01
5.739999999999999547e-01
5.739999999999999547e-01
5.739999999999999547e-01
5.719999999999999529e-01
5.699999999999999512e-01
5.679999999999999494e-01
5.659999999999999476e-01
5.659999999999999476e-01
5.659999999999999476e-01
5.659999999999999476e-01
5.659999999999999476e-01
5.679999999999999494e-01
5.679999999999999494e-01
5.679999999999999494e-01
5.679999999999999494e-01
5.679999999999999494e-01
5.679999999999999494e-01
5.679999999999999494e-01
5.659999999999999476e-01
5.659999999999999476e-01
5.639999999999999458e-01
5.639999999999999458e-01
5.639999999999999458e-01
5.639999999999999458e-01
5.620000000000000551e-01
5.620000000000000551e-01
5.620000000000000551e-01
5.620000000000000551e-01
5.620000000000000551e-01
5.639999999999999458e-01
5.659999999999999476e-01
5.659999999999999476e-01
5.699999999999999512e-01
5.699999999999999512e-01
5.699999999999999512e-01
5.679999999999999494e-01
5.679999999999999494e-01
5.679999999999999494e-01
5.639999999999999458e-01
5.620000000000000551e-01
5.600000000000000533e-01
5.600000000000000533e-01
5.600000000000000533e-01
5.600000000000000533e-01
5.600000000000000533e-01
5.620000000000000551e-01
5.620000000000000551e-01
5.620000000000000551e-01
5.620000000000000551e-01
5.620000000000000551e-01
5.620000000000000551e-01
5.620000000000000551e-01
5.620000000000000551e-01
5.620000000000000551e-01
5.600000000000000533e-01
5.600000000000000533e-01
5.600000000000000533e-01
5.580000000000000515e-01
5.600000000000000533e-01
5.600000000000000533e-01
5.600000000000000533e-01
5.600000000000000533e-01
5.580000000000000515e-01
5.560000000000000497e-01
5.520000000000000462e-01
5.520000000000000462e-01
5.480000000000000426e-01
5.480000000000000426e-01
5.480000000000000426e-01
5.480000000000000426e-01
5.480000000000000426e-01
5.480000000000000426e-01
5.480000000000000426e-01
5.480000000000000426e-01
5.480000000000000426e-01
5.500000000000000444e-01
5.480000000000000426e-01
5.480000000000000426e-01
5.460000000000000409e-01
5.460000000000000409e-01
5.480000000000000426e-01
5.480000000000000426e-01
5.480000000000000426e-01
5.440000000000000391e-01
5.440000000000000391e-01
5.400000000000000355e-01
5.380000000000000338e-01
5.380000000000000338e-01
5.380000000000000338e-01
5.380000000000000338e-01
5.400000000000000355e-01
5.400000000000000355e-01
5.420000000000000373e-01
5.440000000000000391e-01
5.440000000000000391e-01
5.440000000000000391e-01
5.440000000000000391e-01
5.440000000000000391e-01
5.440000000000000391e-01
5.440000000000000391e-01
5.440000000000000391e-01
5.480000000000000426e-01
5.480000000000000426e-01
5.480000000000000426e-01
5.480000000000000426e-01
5.480000000000000426e-01
5.480000000000000426e-01
5.520000000000000462e-01
5.580000000000000515e-01
5.600000000000000533e-01
5.600000000000000533e-01
5.620000000000000551e-01
5.639999999999999458e-01
5.659999999999999476e-01
5.679999999999999494e-01
5.679999999999999494e-01
5.679999999999999494e-01
5.719999999999999529e-01
5.719999999999999529e-01
5.759999999999999565e-01
5.779999999999999583e-01
5.779999999999999583e-01
5.779999999999999583e-01
5.779999999999999583e-01
5.799999999999999600e-01
5.819999999999999618e-01
5.879999999999999671e-01
5.919999999999999707e-01
5.939999999999999725e-01
5.959999999999999742e-01
5.979999999999999760e-01
5.979999999999999760e-01
6.099999999999999867e-01
6.119999999999999885e-01
6.219999999999999973e-01
6.179999999999999938e-01
6.139999999999999902e-01
6.099999999999999867e-01
6.059999999999999831e-01
6.019999999999999796e-01
5.959999999999999742e-01
5.899999999999999689e-01
5.819999999999999618e-01
5.759999999999999565e-01
5.739999999999999547e-01
5.739999999999999547e-01
5.739999999999999547e-01
5.739999999999999547e-01
5.739999999999999547e-01
5.719999999999999529e-01
5.719999999999999529e-01
5.719999999999999529e-01
5.719999999999999529e-01
5.699999999999999512e-01
5.679999999999999494e-01
5.679999999999999494e-01
5.699999999999999512e-01
5.919999999999999707e-01
6.320000000000000062e-01
6.820000000000000506e-01
7.620000000000000107e-01
8.379999999999999671e-01
8.679999999999999938e-01
7.720000000000000195e-01
7.079999999999999627e-01
6.260000000000000009e-01
5.600000000000000533e-01
5.719999999999999529e-01
5.859999999999999654e-01
5.939999999999999725e-01
5.959999999999999742e-01
5.919999999999999707e-01
5.899999999999999689e-01
5.899999999999999689e-01
5.899999999999999689e-01
5.919999999999999707e-01
5.919999999999999707e-01
5.899999999999999689e-01
5.899999999999999689e-01
5.879999999999999671e-01
5.879999999999999671e-01
5.919999999999999707e-01
5.959999999999999742e-01
5.999999999999999778e-01
6.039999999999999813e-01
6.039999999999999813e-01
6.059999999999999831e-01
6.099999999999999867e-01
6.119999999999999885e-01
6.139999999999999902e-01
6.119999999999999885e-01
6.159999999999999920e-01
6.179999999999999938e-01
6.239999999999999991e-01
6.239999999999999991e-01
6.260000000000000009e-01
6.280000000000000027e-01
6.300000000000000044e-01
6.320000000000000062e-01
6.340000000000000080e-01
6.380000000000000115e-01
6.460000000000000187e-01
6.480000000000000204e-01
6.540000000000000258e-01
6.560000000000000275e-01
6.600000000000000311e-01
6.640000000000000346e-01
6.660000000000000364e-01
6.760000000000000453e-01
6.820000000000000506e-01
6.979999999999999538e-01
7.039999999999999591e-01
7.099999999999999645e-01
7.159999999999999698e-01
7.159999999999999698e-01
7.179999999999999716e-01
7.199999999999999734e-01
7.199999999999999734e-01
7.139999999999999680e-01
7.059999999999999609e-01
6.939999999999999503e-01
6.840000000000000524e-01
6.740000000000000435e-01
6.620000000000000329e-01
6.500000000000000222e-01
6.380000000000000115e-01
6.260000000000000009e-01
6.159999999999999920e-01
6.059999999999999831e-01
5.939999999999999725e-01
5.899999999999999689e-01
5.799999999999999600e-01
5.719999999999999529e-01
5.679999999999999494e-01
5.620000000000000551e-01
5.600000000000000533e-01
5.580000000000000515e-01
5.580000000000000515e-01
5.580000000000000515e-01
5.580000000000000515e-01
5.580000000000000515e-01
5.600000000000000533e-01
5.580000000000000515e-01
5.540000000000000480e-01
5.500000000000000444e-01
5.480000000000000426e-01
5.440000000000000391e-01
5.440000000000000391e-01
5.440000000000000391e-01
5.440000000000000391e-01
5.420000000000000373e-01
5.400000000000000355e-01
5.400000000000000355e-01
5.400000000000000355e-01
5.420000000000000373e-01
5.400000000000000355e-01
5.380000000000000338e-01
5.360000000000000320e-01
5.340000000000000302e-01
5.360000000000000320e-01
5.320000000000000284e-01
5.300000000000000266e-01
5.260000000000000231e-01
5.260000000000000231e-01
5.260000000000000231e-01
5.260000000000000231e-01
5.300000000000000266e-01
5.320000000000000284e-01
5.320000000000000284e-01
5.280000000000000249e-01
5.280000000000000249e-01
5.240000000000000213e-01
5.220000000000000195e-01
5.160000000000000142e-01
5.160000000000000142e-01
5.100000000000000089e-01
5.100000000000000089e-01
5.120000000000000107e-01
5.160000000000000142e-01
5.160000000000000142e-01
5.160000000000000142e-01
5.160000000000000142e-01
5.160000000000000142e-01
5.180000000000000160e-01
5.180000000000000160e-01
5.200000000000000178e-01
5.200000000000000178e-01
5.180000000000000160e-01
5.180000000000000160e-01
5.180000000000000160e-01
5.140000000000000124e-01
5.120000000000000107e-01
5.080000000000000071e-01
5.080000000000000071e-01
5.080000000000000071e-01
5.100000000000000089e-01
5.080000000000000071e-01
5.080000000000000071e-01
5.060000000000000053e-01
5.040000000000000036e-01
5.040000000000000036e-01
5.000000000000000000e-01
4.979999999999999982e-01
5.000000000000000000e-01
4.979999999999999982e-01
4.979999999999999982e-01
4.979999999999999982e-01
4.979999999999999982e-01
4.979999999999999982e-01
4.979999999999999982e-01
4.959999999999999964e-01
4.959999999999999964e-01
4.959999999999999964e-01
5.000000000000000000e-01
5.020000000000000018e-01
5.020000000000000018e-01
4.979999999999999982e-01
4.959999999999999964e-01
4.959999999999999964e-01
4.979999999999999982e-01
4.979999999999999982e-01
4.979999999999999982e-01
5.000000000000000000e-01
5.000000000000000000e-01
5.000000000000000000e-01
5.000000000000000000e-01
4.979999999999999982e-01
4.939999999999999947e-01
4.939999999999999947e-01
4.939999999999999947e-01
4.939999999999999947e-01
4.939999999999999947e-01
4.939999999999999947e-01
4.939999999999999947e-01
4.939999999999999947e-01
4.899999999999999911e-01
4.899999999999999911e-01
4.879999999999999893e-01
4.879999999999999893e-01
4.859999999999999876e-01
4.859999999999999876e-01
4.879999999999999893e-01
4.919999999999999929e-01
4.919999999999999929e-01
4.939999999999999947e-01
4.959999999999999964e-01
4.959999999999999964e-01
4.959999999999999964e-01
4.899999999999999911e-01
4.879999999999999893e-01
4.879999999999999893e-01
4.879999999999999893e-01
4.899999999999999911e-01
4.899999999999999911e-01
4.919999999999999929e-01
4.919999999999999929e-01
4.919999999999999929e-01
4.919999999999999929e-01
4.919999999999999929e-01
4.919999999999999929e-01
4.919999999999999929e-01
4.939999999999999947e-01
4.919999999999999929e-01
4.919999999999999929e-01
4.899999999999999911e-01
4.899999999999999911e-01
4.879999999999999893e-01
4.859999999999999876e-01
4.879999999999999893e-01
4.879999999999999893e-01
4.899999999999999911e-01
4.859999999999999876e-01
4.799999999999999822e-01
4.779999999999999805e-01
4.779999999999999805e-01
4.779999999999999805e-01
4.799999999999999822e-01
4.799999999999999822e-01
4.819999999999999840e-01
4.819999999999999840e-01
4.839999999999999858e-01
4.839999999999999858e-01
4.839999999999999858e-01
4.849999999999999867e-01
4.859999999999999876e-01
4.859999999999999876e-01
4.859999999999999876e-01
4.879999999999999893e-01
4.879999999999999893e-01
4.919999999999999929e-01
4.939999999999999947e-01
4.959999999999999964e-01
4.959999999999999964e-01
4.979999999999999982e-01
5.000000000000000000e-01
5.040000000000000036e-01
5.060000000000000053e-01
5.100000000000000089e-01
5.140000000000000124e-01
5.140000000000000124e-01
5.140000000000000124e-01
5.140000000000000124e-01
5.140000000000000124e-01
5.100000000000000089e-01
5.080000000000000071e-01
5.040000000000000036e-01
5.000000000000000000e-01
4.979999999999999982e-01
4.959999999999999964e-01
4.939999999999999947e-01
4.939999999999999947e-01
4.939999999999999947e-01
4.959999999999999964e-01
4.959999999999999964e-01
4.919999999999999929e-01
4.899999999999999911e-01
4.899999999999999911e-01
4.899999999999999911e-01
4.899999999999999911e-01
5.480000000000000426e-01
5.480000000000000426e-01
5.480000000000000426e-01
5.480000000000000426e-01
5.480000000000000426e-01
5.739999999999999547e-01
6.959999999999999520e-01
8.459999999999999742e-01
9.260000000000000453e-01
9.060000000000000275e-01
8.719999999999999973e-01
7.860000000000000320e-01
7.319999999999999840e-01
6.820000000000000506e-01
6.320000000000000062e-01
5.739999999999999547e-01
5.520000000000000462e-01
7.279999999999999805e-01
7.179999999999999716e-01
7.059999999999999609e-01
6.979999999999999538e-01
6.899999999999999467e-01
6.840000000000000524e-01
5.939999999999999725e-01
5.040000000000000036e-01
5.060000000000000053e-01
5.060000000000000053e-01
6.899999999999999467e-01
6.879999999999999449e-01
6.840000000000000524e-01
6.840000000000000524e-01
6.820000000000000506e-01
7.159999999999999698e-01
7.159999999999999698e-01
7.159999999999999698e-01
7.079999999999999627e-01
6.380000000000000115e-01
6.380000000000000115e-01
6.380000000000000115e-01
7.560000000000000053e-01
6.400000000000000133e-01
5.200000000000000178e-01
5.200000000000000178e-01
5.220000000000000195e-01
5.240000000000000213e-01
5.240000000000000213e-01
5.260000000000000231e-01
5.280000000000000249e-01
5.320000000000000284e-01
5.360000000000000320e-01
5.380000000000000338e-01
5.440000000000000391e-01
5.500000000000000444e-01
5.540000000000000480e-01
5.620000000000000551e-01
5.679999999999999494e-01
5.699999999999999512e-01
5.799999999999999600e-01
5.879999999999999671e-01
5.919999999999999707e-01
5.939999999999999725e-01
5.999999999999999778e-01
6.039999999999999813e-01
6.059999999999999831e-01
6.059999999999999831e-01
6.059999999999999831e-01
6.039999999999999813e-01
5.979999999999999760e-01
5.919999999999999707e-01
5.799999999999999600e-01
5.679999999999999494e-01
5.620000000000000551e-01
5.540000000000000480e-01
5.480000000000000426e-01
5.360000000000000320e-01
5.300000000000000266e-01
5.240000000000000213e-01
5.220000000000000195e-01
5.200000000000000178e-01
5.180000000000000160e-01
5.160000000000000142e-01
5.140000000000000124e-01
5.140000000000000124e-01
5.120000000000000107e-01
5.120000000000000107e-01
5.120000000000000107e-01
5.120000000000000107e-01
5.120000000000000107e-01
5.120000000000000107e-01
5.120000000000000107e-01
5.100000000000000089e-01
5.080000000000000071e-01
5.100000000000000089e-01
5.120000000000000107e-01
5.120000000000000107e-01
5.140000000000000124e-01
5.140000000000000124e-01
5.160000000000000142e-01
5.160000000000000142e-01
5.180000000000000160e-01
5.180000000000000160e-01
5.200000000000000178e-01
5.200000000000000178e-01
5.200000000000000178e-01
5.200000000000000178e-01
5.200000000000000178e-01
5.200000000000000178e-01
5.200000000000000178e-01
5.200000000000000178e-01
5.200000000000000178e-01
5.200000000000000178e-01
5.200000000000000178e-01
5.200000000000000178e-01
5.220000000000000195e-01
5.220000000000000195e-01
5.220000000000000195e-01
5.240000000000000213e-01
5.240000000000000213e-01
5.240000000000000213e-01
5.240000000000000213e-01
5.240000000000000213e-01
5.260000000000000231e-01
5.260000000000000231e-01
5.260000000000000231e-01
5.260000000000000231e-01
5.280000000000000249e-01
5.280000000000000249e-01
5.280000000000000249e-01
5.280000000000000249e-01
5.300000000000000266e-01
5.300000000000000266e-01
5.300000000000000266e-01
5.320000000000000284e-01
5.320000000000000284e-01
5.320000000000000284e-01
5.340000000000000302e-01
5.340000000000000302e-01
5.340000000000000302e-01
5.340000000000000302e-01
5.340000000000000302e-01
5.340000000000000302e-01
5.360000000000000320e-01
5.360000000000000320e-01
5.360000000000000320e-01
5.360000000000000320e-01
5.360000000000000320e-01
5.380000000000000338e-01
5.380000000000000338e-01
5.380000000000000338e-01
5.380000000000000338e-01
5.380000000000000338e-01
5.400000000000000355e-01
5.400000000000000355e-01
5.400000000000000355e-01
5.400000000000000355e-01
5.400000000000000355e-01
5.400000000000000355e-01
5.400000000000000355e-01
5.400000000000000355e-01
5.400000000000000355e-01
5.400000000000000355e-01
5.400000000000000355e-01
5.400000000000000355e-01
5.380000000000000338e-01
5.360000000000000320e-01
5.340000000000000302e-01
5.360000000000000320e-01
5.360000000000000320e-01
5.380000000000000338e-01
5.380000000000000338e-01
5.400000000000000355e-01
5.400000000000000355e-01
5.400000000000000355e-01
5.420000000000000373e-01
5.420000000000000373e-01
5.420000000000000373e-01
5.420000000000000373e-01
5.420000000000000373e-01
5.420000000000000373e-01
5.420000000000000373e-01
5.420000000000000373e-01
5.420000000000000373e-01
5.420000000000000373e-01
5.420000000000000373e-01
5.420000000000000373e-01
5.400000000000000355e-01
5.400000000000000355e-01
5.380000000000000338e-01
5.360000000000000320e-01
5.320000000000000284e-01
5.320000000000000284e-01
5.320000000000000284e-01
5.320000000000000284e-01
5.340000000000000302e-01
5.340000000000000302e-01
5.340000000000000302e-01
5.340000000000000302e-01
5.340000000000000302e-01
5.340000000000000302e-01
5.340000000000000302e-01
5.340000000000000302e-01
5.340000000000000302e-01
5.340000000000000302e-01
5.340000000000000302e-01
5.340000000000000302e-01
5.360000000000000320e-01
5.360000000000000320e-01
5.360000000000000320e-01
5.360000000000000320e-01
5.360000000000000320e-01
5.380000000000000338e-01
5.380000000000000338e-01
5.380000000000000338e-01
5.360000000000000320e-01
5.360000000000000320e-01
5.340000000000000302e-01
5.320000000000000284e-01
5.300000000000000266e-01
5.280000000000000249e-01
5.200000000000000178e-01
5.160000000000000142e-01
5.120000000000000107e-01
5.120000000000000107e-01
5.180000000000000160e-01
5.240000000000000213e-01
5.320000000000000284e-01
5.340000000000000302e-01
5.360000000000000320e-01
5.360000000000000320e-01
5.400000000000000355e-01
5.420000000000000373e-01
5.400000000000000355e-01
5.380000000000000338e-01
5.320000000000000284e-01
5.260000000000000231e-01
5.240000000000000213e-01
5.240000000000000213e-01
5.240000000000000213e-01
5.220000000000000195e-01
5.220000000000000195e-01
5.220000000000000195e-01
5.220000000000000195e-01
5.200000000000000178e-01
5.200000000000000178e-01
5.180000000000000160e-01
5.160000000000000142e-01
5.060000000000000053e-01
4.879999999999999893e-01
4.680000000000000271e-01
4.520000000000000129e-01
5.040000000000000036e-01
5.939999999999999725e-01
7.019999999999999574e-01
8.479999999999999760e-01
9.439999999999999503e-01
1.000000000000000000e+00
9.619999999999999662e-01
8.880000000000000115e-01
7.900000000000000355e-01
7.139999999999999680e-01
6.380000000000000115e-01
5.679999999999999494e-01
5.320000000000000284e-01
5.120000000000000107e-01
4.979999999999999982e-01
4.939999999999999947e-01
4.879999999999999893e-01
4.859999999999999876e-01
4.839999999999999858e-01
4.839999999999999858e-01
4.799999999999999822e-01
4.799999999999999822e-01
4.779999999999999805e-01
4.799999999999999822e-01
4.799999999999999822e-01
4.819999999999999840e-01
4.819999999999999840e-01
4.819999999999999840e-01
4.819999999999999840e-01
4.839999999999999858e-01
4.859999999999999876e-01
4.859999999999999876e-01
4.879999999999999893e-01
4.879999999999999893e-01
4.899999999999999911e-01
4.919999999999999929e-01
4.939999999999999947e-01
4.959999999999999964e-01
4.979999999999999982e-01
5.000000000000000000e-01
5.020000000000000018e-01
5.040000000000000036e-01
5.060000000000000053e-01
5.120000000000000107e-01
5.140000000000000124e-01
5.180000000000000160e-01
5.200000000000000178e-01
5.260000000000000231e-01
5.300000000000000266e-01
5.340000000000000302e-01
5.400000000000000355e-01
5.440000000000000391e-01
5.520000000000000462e-01
5.580000000000000515e-01
5.639999999999999458e-01
5.679999999999999494e-01
5.719999999999999529e-01
5.739999999999999547e-01
5.879999999999999671e-01
5.879999999999999671e-01
5.899999999999999689e-01
5.899999999999999689e-01
5.879999999999999671e-01
5.819999999999999618e-01
5.759999999999999565e-01
5.659999999999999476e-01
5.580000000000000515e-01
5.480000000000000426e-01
5.420000000000000373e-01
5.300000000000000266e-01
5.240000000000000213e-01
5.160000000000000142e-01
5.120000000000000107e-01
5.040000000000000036e-01
5.020000000000000018e-01
5.000000000000000000e-01
4.959999999999999964e-01
4.939999999999999947e-01
4.919999999999999929e-01
4.919999999999999929e-01
4.899999999999999911e-01
4.899999999999999911e-01
4.899999999999999911e-01
4.899999999999999911e-01
4.879999999999999893e-01
4.879999999999999893e-01
4.899999999999999911e-01
4.879999999999999893e-01
4.879999999999999893e-01
4.879999999999999893e-01
4.879999999999999893e-01
4.879999999999999893e-01
4.879999999999999893e-01
4.859999999999999876e-01
4.859999999999999876e-01
4.859999999999999876e-01
4.859999999999999876e-01
4.859999999999999876e-01
4.859999999999999876e-01
4.879999999999999893e-01
4.879999999999999893e-01
4.879999999999999893e-01
4.879999999999999893e-01
4.899999999999999911e-01
4.899999999999999911e-01
4.919999999999999929e-01
4.919999999999999929e-01
4.919999999999999929e-01
4.939999999999999947e-01
4.939999999999999947e-01
4.919999999999999929e-01
4.899999999999999911e-01
4.899999999999999911e-01
4.879999999999999893e-01
4.879999999999999893e-01
4.879999999999999893e-01
4.879999999999999893e-01
4.879999999999999893e-01
4.879999999999999893e-01
4.879999999999999893e-01
4.879999999999999893e-01
4.879999999999999893e-01
4.879999999999999893e-01
4.899999999999999911e-01
4.919999999999999929e-01
4.919999999999999929e-01
4.939999999999999947e-01
4.939999999999999947e-01
4.959999999999999964e-01
4.979999999999999982e-01
5.000000000000000000e-01
5.000000000000000000e-01
5.000000000000000000e-01
5.020000000000000018e-01
5.020000000000000018e-01
5.040000000000000036e-01
5.040000000000000036e-01
5.060000000000000053e-01
5.060000000000000053e-01
5.060000000000000053e-01
5.080000000000000071e-01
5.080000000000000071e-01
5.080000000000000071e-01
5.080000000000000071e-01
5.080000000000000071e-01
5.080000000000000071e-01
5.080000000000000071e-01
5.080000000000000071e-01
5.080000000000000071e-01
5.080000000000000071e-01
5.080000000000000071e-01
5.080000000000000071e-01
5.080000000000000071e-01
5.080000000000000071e-01
5.080000000000000071e-01
5.060000000000000053e-01
5.060000000000000053e-01
5.040000000000000036e-01
5.040000000000000036e-01
5.040000000000000036e-01
5.020000000000000018e-01
5.020000000000000018e-01
5.020000000000000018e-01
5.020000000000000018e-01
5.020000000000000018e-01
5.020000000000000018e-01
5.020000000000000018e-01
5.020000000000000018e-01
5.020000000000000018e-01
5.040000000000000036e-01
5.040000000000000036e-01
5.040000000000000036e-01
5.040000000000000036e-01
5.040000000000000036e-01
5.040000000000000036e-01
5.060000000000000053e-01
5.060000000000000053e-01
5.060000000000000053e-01
5.060000000000000053e-01
5.060000000000000053e-01
5.080000000000000071e-01
5.080000000000000071e-01
5.080000000000000071e-01
5.080000000000000071e-01
5.100000000000000089e-01
5.100000000000000089e-01
5.100000000000000089e-01
5.120000000000000107e-01
5.120000000000000107e-01
5.120000000000000107e-01
5.140000000000000124e-01
5.120000000000000107e-01
5.120000000000000107e-01
5.120000000000000107e-01
5.120000000000000107e-01
5.120000000000000107e-01
5.120000000000000107e-01
5.120000000000000107e-01
5.120000000000000107e-01
5.120000000000000107e-01
5.120000000000000107e-01
5.120000000000000107e-01
5.120000000000000107e-01
5.080000000000000071e-01
5.060000000000000053e-01
5.000000000000000000e-01
4.979999999999999982e-01
5.000000000000000000e-01
5.060000000000000053e-01
5.180000000000000160e-01
5.300000000000000266e-01
5.420000000000000373e-01
5.460000000000000409e-01
5.420000000000000373e-01
5.360000000000000320e-01
5.340000000000000302e-01
5.340000000000000302e-01
5.360000000000000320e-01
5.320000000000000284e-01
5.280000000000000249e-01
5.260000000000000231e-01
5.260000000000000231e-01
5.240000000000000213e-01
5.240000000000000213e-01
5.240000000000000213e-01
5.240000000000000213e-01
5.220000000000000195e-01
5.220000000000000195e-01
5.200000000000000178e-01
5.200000000000000178e-01
5.200000000000000178e-01
5.160000000000000142e-01
5.040000000000000036e-01
4.879999999999999893e-01
4.680000000000000271e-01
4.600000000000000200e-01
5.320000000000000284e-01
6.239999999999999991e-01
7.419999999999999929e-01
8.719999999999999973e-01
9.659999999999999698e-01
9.340000000000000524e-01
6.340000000000000080e-01
6.019999999999999796e-01
6.159999999999999920e-01
6.039999999999999813e-01
5.620000000000000551e-01
5.540000000000000480e-01
6.820000000000000506e-01
6.919999999999999485e-01
6.999999999999999556e-01
7.119999999999999662e-01
7.199999999999999734e-01
7.319999999999999840e-01
7.419999999999999929e-01
7.479999999999999982e-01
7.520000000000000018e-01
7.500000000000000000e-01
7.419999999999999929e-01
7.319999999999999840e-01
7.199999999999999734e-01
7.099999999999999645e-01
6.979999999999999538e-01
6.860000000000000542e-01
6.820000000000000506e-01
6.079999999999999849e-01
5.320000000000000284e-01
5.320000000000000284e-01
7.319999999999999840e-01
7.279999999999999805e-01
7.199999999999999734e-01
7.119999999999999662e-01
7.079999999999999627e-01
6.999999999999999556e-01
6.939999999999999503e-01
6.879999999999999449e-01
6.820000000000000506e-01
7.179999999999999716e-01
7.119999999999999662e-01
7.119999999999999662e-01
5.819999999999999618e-01
4.699999999999999734e-01
4.600000000000000200e-01
4.540000000000000147e-01
4.420000000000000040e-01
4.319999999999999951e-01
4.239999999999999880e-01
4.079999999999999738e-01
4.020000000000000240e-01
3.940000000000000169e-01
3.860000000000000098e-01
3.800000000000000044e-01
3.739999999999999991e-01
3.719999999999999973e-01
3.719999999999999973e-01
3.760000000000000009e-01
3.820000000000000062e-01
3.880000000000000115e-01
4.020000000000000240e-01
4.159999999999999809e-01
4.400000000000000022e-01
4.540000000000000147e-01
4.719999999999999751e-01
4.879999999999999893e-01
5.040000000000000036e-01
5.200000000000000178e-01
5.320000000000000284e-01
5.400000000000000355e-01
5.480000000000000426e-01
5.540000000000000480e-01
5.580000000000000515e-01
5.620000000000000551e-01
5.679999999999999494e-01
5.679999999999999494e-01
5.699999999999999512e-01
5.719999999999999529e-01
5.739999999999999547e-01
5.739999999999999547e-01
5.739999999999999547e-01
5.739999999999999547e-01
5.739999999999999547e-01
5.739999999999999547e-01
5.739999999999999547e-01
5.739999999999999547e-01
5.739999999999999547e-01
5.739999999999999547e-01
5.739999999999999547e-01
5.739999999999999547e-01
5.739999999999999547e-01
5.739999999999999547e-01
5.739999999999999547e-01
5.779999999999999583e-01
5.779999999999999583e-01
5.779999999999999583e-01
5.779999999999999583e-01
5.779999999999999583e-01
5.779999999999999583e-01
5.799999999999999600e-01
5.819999999999999618e-01
5.859999999999999654e-01
5.879999999999999671e-01
5.899999999999999689e-01
5.899999999999999689e-01
5.939999999999999725e-01
5.939999999999999725e-01
5.959999999999999742e-01
5.979999999999999760e-01
5.999999999999999778e-01
5.999999999999999778e-01
6.019999999999999796e-01
6.019999999999999796e-01
6.019999999999999796e-01
6.019999999999999796e-01
6.019999999999999796e-01
6.019999999999999796e-01
6.019999999999999796e-01
6.019999999999999796e-01
6.019999999999999796e-01
6.019999999999999796e-01
6.019999999999999796e-01
6.019999999999999796e-01
6.019999999999999796e-01
6.019999999999999796e-01
6.019999999999999796e-01
6.039999999999999813e-01
6.059999999999999831e-01
6.079999999999999849e-01
6.099999999999999867e-01
6.079999999999999849e-01
6.079999999999999849e-01
6.079999999999999849e-01
6.079999999999999849e-01
6.059999999999999831e-01
6.059999999999999831e-01
6.039999999999999813e-01
6.039999999999999813e-01
6.039999999999999813e-01
6.079999999999999849e-01
6.079999999999999849e-01
6.079999999999999849e-01
6.079999999999999849e-01
6.079999999999999849e-01
6.079999999999999849e-01
6.059999999999999831e-01
6.059999999999999831e-01
6.059999999999999831e-01
6.059999999999999831e-01
6.059999999999999831e-01
6.059999999999999831e-01
6.079999999999999849e-01
6.079999999999999849e-01
6.079999999999999849e-01
6.079999999999999849e-01
6.079999999999999849e-01
6.079999999999999849e-01
6.079999999999999849e-01
6.059999999999999831e-01
6.059999999999999831e-01
6.039999999999999813e-01
6.039999999999999813e-01
6.039999999999999813e-01
6.039999999999999813e-01
6.019999999999999796e-01
6.019999999999999796e-01
6.019999999999999796e-01
5.999999999999999778e-01
5.999999999999999778e-01
5.999999999999999778e-01
5.999999999999999778e-01
5.999999999999999778e-01
5.999999999999999778e-01
5.999999999999999778e-01
5.999999999999999778e-01
5.999999999999999778e-01
5.999999999999999778e-01
5.999999999999999778e-01
5.999999999999999778e-01
5.999999999999999778e-01
5.999999999999999778e-01
5.999999999999999778e-01
5.999999999999999778e-01
5.999999999999999778e-01
5.999999999999999778e-01
5.999999999999999778e-01
5.999999999999999778e-01
5.999999999999999778e-01
5.999999999999999778e-01
5.979999999999999760e-01
5.959999999999999742e-01
5.959999999999999742e-01
5.939999999999999725e-01
5.919999999999999707e-01
5.899999999999999689e-01
5.879999999999999671e-01
5.879999999999999671e-01
5.859999999999999654e-01
5.859999999999999654e-01
5.859999999999999654e-01
5.859999999999999654e-01
5.819999999999999618e-01
5.819999999999999618e-01
5.799999999999999600e-01
5.799999999999999600e-01
5.799999999999999600e-01
5.839999999999999636e-01
5.879999999999999671e-01
5.919999999999999707e-01
5.919999999999999707e-01
5.939999999999999725e-01
5.959999999999999742e-01
5.979999999999999760e-01
5.999999999999999778e-01
6.019999999999999796e-01
6.019999999999999796e-01
6.019999999999999796e-01
6.019999999999999796e-01
6.019999999999999796e-01
6.019999999999999796e-01
6.019999999999999796e-01
6.019999999999999796e-01
5.999999999999999778e-01
5.959999999999999742e-01
5.859999999999999654e-01
5.600000000000000533e-01
5.280000000000000249e-01
4.380000000000000004e-01
3.360000000000000209e-01
1.940000000000000058e-01
3.200000000000000067e-02
0.000000000000000000e+00
2.999999999999999889e-01
4.959999999999999964e-01
7.419999999999999929e-01
7.800000000000000266e-01
6.959999999999999520e-01
6.400000000000000133e-01
6.099999999999999867e-01
5.939999999999999725e-01
5.899999999999999689e-01
5.859999999999999654e-01
5.859999999999999654e-01
5.799999999999999600e-01
5.799999999999999600e-01
5.799999999999999600e-01
5.759999999999999565e-01
5.739999999999999547e-01
5.719999999999999529e-01
5.699999999999999512e-01
5.659999999999999476e-01
5.620000000000000551e-01
5.600000000000000533e-01
5.560000000000000497e-01
5.520000000000000462e-01
5.480000000000000426e-01
5.460000000000000409e-01
5.420000000000000373e-01
5.380000000000000338e-01
5.340000000000000302e-01
5.300000000000000266e-01
5.280000000000000249e-01
5.260000000000000231e-01
5.240000000000000213e-01
5.200000000000000178e-01
5.200000000000000178e-01
5.120000000000000107e-01
5.060000000000000053e-01
5.020000000000000018e-01
4.939999999999999947e-01
4.879999999999999893e-01
4.779999999999999805e-01
4.719999999999999751e-01
4.620000000000000218e-01
4.480000000000000093e-01
4.420000000000000040e-01
4.279999999999999916e-01
4.159999999999999809e-01
4.040000000000000258e-01
3.980000000000000204e-01
3.900000000000000133e-01
3.820000000000000062e-01
3.780000000000000027e-01
3.760000000000000009e-01
3.780000000000000027e-01
3.800000000000000044e-01
3.820000000000000062e-01
3.860000000000000098e-01
3.960000000000000187e-01
4.020000000000000240e-01
4.239999999999999880e-01
4.420000000000000040e-01
4.560000000000000164e-01
