5.030674846625766694e-01
5.030674846625766694e-01
4.974743048362679776e-01
4.918811250099593413e-01
4.862879451836507605e-01
4.806947653573420687e-01
4.751015855310333769e-01
4.695084057047247406e-01
4.639152258784161043e-01
4.583220460521074124e-01
4.527288662257987206e-01
4.471356863994900843e-01
4.415425065731814480e-01
4.359493267468727562e-01
4.303561469205640644e-01
4.247629670942554281e-01
4.191697872679467918e-01
4.135766074416381000e-01
4.079834276153294081e-01
4.023902477890208274e-01
3.967970679627121910e-01
3.912038881364034992e-01
3.856107083100948074e-01
3.800175284837861711e-01
3.744243486574775348e-01
3.688311688311688430e-01
3.632379890048601512e-01
3.576448091785515149e-01
3.520516293522428786e-01
3.464584495259341868e-01
3.408652696996254949e-01
3.352720898733168586e-01
3.296789100470082778e-01
3.240857302206995860e-01
3.184925503943908387e-01
3.128993705680822579e-01
3.073061907417735661e-01
3.017130109154649298e-01
2.961198310891562380e-01
2.905266512628476017e-01
2.849334714365389654e-01
2.793402916102302735e-01
2.737471117839216372e-01
2.681539319576129454e-01
2.625607521313043091e-01
2.569675723049956173e-01
2.513743924786869810e-01
2.457812126523783169e-01
2.401880328260696529e-01
2.345948529997609888e-01
2.290016731734523248e-01
2.234084933471436885e-01
2.178153135208350244e-01
2.122221336945263603e-01
2.066289538682176963e-01
2.010357740419090322e-01
1.954425942156003682e-01
1.898494143892917041e-01
1.842562345629830123e-01
1.786630547366744037e-01
1.730698749103657674e-01
1.674766950840570756e-01
1.618835152577483838e-01
1.562903354314397475e-01
1.506971556051311389e-01
1.451039757788224471e-01
1.395107959525137276e-01
1.339176161262051190e-01
1.283244362998964827e-01
1.227312564735877909e-01
1.171380766472790991e-01
1.115448968209704766e-01
1.059517169946618403e-01
1.003585371683531485e-01
9.476535734204445671e-02
8.917217751573583429e-02
8.357899768942721186e-02
7.798581786311850617e-02
7.239263803680981435e-02
5.717791411042945082e-01
5.717791411042945082e-01
5.742331288343558438e-01
5.141104294478527903e-01
5.141104294478527903e-01
5.141104294478527903e-01
5.141104294478527903e-01
5.141104294478527903e-01
5.141104294478527903e-01
5.141104294478527903e-01
5.141104294478527903e-01
5.141104294478527903e-01
5.141104294478527903e-01
5.141104294478527903e-01
5.141104294478527903e-01
5.141104294478527903e-01
5.141104294478527903e-01
5.141104294478527903e-01
5.141104294478527903e-01
5.141104294478527903e-01
5.141104294478527903e-01
5.141104294478527903e-01
5.141104294478527903e-01
5.141104294478527903e-01
5.141104294478527903e-01
5.141104294478527903e-01
5.141104294478527903e-01
5.141104294478527903e-01
5.141104294478527903e-01
5.141104294478527903e-01
5.141104294478527903e-01
5.141104294478527903e-01
5.141104294478527903e-01
5.141104294478527903e-01
5.141104294478527903e-01
5.141104294478527903e-01
5.141104294478527903e-01
5.141104294478527903e-01
5.141104294478527903e-01
5.705521472392638405e-01
5.717791411042945082e-01
5.717791411042945082e-01
7.116564417177914659e-02
2.036809815950920144e-01
4.453987730061349515e-01
4.453987730061349515e-01
3.656441717791411028e-01
4.417177914110429621e-02
3.668711656441717706e-01
3.668711656441717706e-01
6.895705521472392796e-01
6.895705521472392796e-01
6.895705521472392796e-01
6.895705521472392796e-01
6.895705521472392796e-01
3.668711656441717706e-01
3.668711656441717706e-01
6.871165644171779441e-01
3.644171779141104350e-01
3.644171779141104350e-01
3.644171779141104350e-01
1.779141104294478526e-01
1.779141104294478526e-01
1.779141104294478526e-01
4.417177914110429621e-02
4.417177914110429621e-02
4.417177914110429621e-02
4.417177914110429621e-02
3.656441717791411028e-01
3.656441717791411028e-01
3.656441717791411028e-01
6.871165644171779441e-01
6.871165644171779441e-01
6.871165644171779441e-01
3.668711656441717706e-01
3.668711656441717706e-01
3.668711656441717706e-01
3.668711656441717706e-01
3.668711656441717706e-01
3.668711656441717706e-01
6.895705521472392796e-01
3.680981595092024383e-01
3.693251533742331061e-01
3.693251533742331061e-01
6.957055214723926184e-01
6.134969325153374203e-02
6.503067484662576614e-02
7.067484662576687393e-01
7.116564417177914104e-01
3.963190184049079634e-01
3.987730061349692989e-01
8.098159509202454420e-02
8.343558282208589361e-02
4.049079754601226933e-01
7.263803680981595345e-01
4.085889570552146965e-01
7.325153374233128734e-01
7.325153374233128734e-01
9.570552147239264063e-02
9.815950920245399003e-02
4.196319018404908174e-01
9.815950920245399003e-02
7.386503067484662122e-01
4.171779141104294264e-01
7.386503067484662122e-01
4.159509202453987586e-01
4.147239263803680909e-01
4.122699386503067553e-01
8.834355828220859241e-02
8.588957055214724301e-02
8.711656441717791077e-02
8.834355828220859241e-02
7.312883435582822056e-01
7.312883435582822056e-01
4.110429447852760876e-01
4.110429447852760876e-01
7.312883435582822056e-01
4.122699386503067553e-01
9.079754601226994182e-02
4.134969325153374231e-01
9.325153374233129122e-02
4.134969325153374231e-01
4.134969325153374231e-01
9.079754601226994182e-02
4.098159509202454198e-01
8.588957055214724301e-02
7.852760736196319480e-02
8.098159509202454420e-02
7.214723926380368635e-01
7.214723926380368635e-01
7.190184049079754169e-01
7.852760736196319480e-02
7.852760736196319480e-02
7.239263803680981435e-02
3.803680981595092270e-01
6.993865030674846217e-01
3.779141104294478359e-01
3.779141104294478359e-01
3.779141104294478359e-01
3.779141104294478359e-01
5.644171779141104323e-02
5.644171779141104323e-02
3.730061349693251649e-01
6.920245398773006151e-01
6.907975460122699474e-01
3.693251533742331061e-01
4.785276073619632031e-02
4.662576687116564561e-02
3.680981595092024383e-01
6.895705521472392796e-01
3.680981595092024383e-01
3.680981595092024383e-01
3.680981595092024383e-01
6.895705521472392796e-01
6.895705521472392796e-01
3.693251533742331061e-01
3.693251533742331061e-01
3.693251533742331061e-01
4.539877300613497091e-02
6.920245398773006151e-01
3.705521472392638294e-01
3.705521472392638294e-01
3.705521472392638294e-01
4.907975460122699501e-02
4.907975460122699501e-02
4.907975460122699501e-02
6.920245398773006151e-01
6.920245398773006151e-01
6.920245398773006151e-01
6.920245398773006151e-01
6.920245398773006151e-01
6.920245398773006151e-01
6.920245398773006151e-01
6.920245398773006151e-01
3.693251533742331061e-01
3.693251533742331061e-01
3.693251533742331061e-01
4.662576687116564561e-02
4.662576687116564561e-02
6.871165644171779441e-01
4.662576687116564561e-02
6.858895705521472763e-01
6.871165644171779441e-01
6.981595092024539539e-01
6.380368098159509838e-02
6.625766871165644778e-02
3.877300613496932336e-01
3.901840490797546246e-01
3.914110429447852924e-01
7.116564417177914659e-02
7.116564417177914659e-02
3.914110429447852924e-01
3.914110429447852924e-01
3.926380368098159601e-01
7.116564417177914659e-02
7.361963190184049599e-02
3.963190184049079634e-01
7.165644171779140814e-01
4.000000000000000222e-01
7.177914110429447492e-01
7.141104294478527459e-01
3.950920245398772956e-01
3.938650306748466279e-01
7.067484662576687393e-01
6.846625766871166086e-01
3.754601226993865004e-01
3.631901840490797673e-01
6.748466257668711554e-01
6.699386503067484844e-01
6.625766871165643668e-01
4.049079754601227210e-02
3.680981595092024800e-02
3.509202453987729786e-01
3.521472392638037019e-01
6.674846625766871488e-01
6.699386503067484844e-01
6.736196319018404877e-01
4.049079754601227210e-02
3.926380368098159740e-02
3.570552147239263729e-01
3.570552147239263729e-01
3.435582822085889859e-02
3.435582822085889859e-02
3.435582822085889859e-02
3.582822085889570407e-01
3.435582822085889859e-02
3.190184049079754919e-02
3.435582822085889859e-02
3.607361963190184317e-01
3.680981595092024800e-02
3.803680981595092270e-02
3.644171779141104350e-01
6.871165644171779441e-01
6.773006134969324910e-01
6.380368098159509005e-01
5.779141104294478470e-01
5.214723926380367969e-01
4.687116564417178055e-01
4.552147239263803491e-01
5.276073619631901357e-01
5.815950920245398503e-01
6.515337423312883569e-01
3.447852760736196398e-01
1.349693251533742346e-02
1.963190184049079870e-02
2.453987730061349751e-02
2.576687116564417221e-02
3.509202453987729786e-01
6.748466257668711554e-01
3.533742331288343697e-01
3.546012269938650374e-01
3.190184049079754919e-02
3.190184049079754919e-02
6.748466257668711554e-01
6.748466257668711554e-01
6.723926380368098199e-01
6.723926380368098199e-01
6.711656441717791521e-01
6.687116564417178166e-01
6.650306748466258133e-01
6.625766871165643668e-01
2.453987730061349751e-02
2.453987730061349751e-02
2.699386503067484691e-02
2.944785276073619631e-02
2.822085889570552161e-02
2.699386503067484691e-02
2.699386503067484691e-02
3.460122699386503076e-01
6.625766871165643668e-01
6.601226993865030312e-01
6.576687116564416957e-01
3.435582822085889720e-01
6.503067484662576891e-01
6.490797546012270214e-01
6.453987730061350181e-01
6.453987730061350181e-01
6.417177914110429038e-01
6.355828220858895650e-01
3.190184049079754919e-02
2.576687116564417221e-02
3.067484662576687102e-02
3.558282208588957329e-02
3.263803680981595123e-01
6.085889570552147632e-01
6.049079754601226488e-01
6.012269938650306456e-01
5.975460122699386423e-01
3.116564417177913882e-01
5.926380368098159712e-01
5.889570552147239679e-01
5.865030674846625214e-01
2.699386503067484691e-02
3.030674846625767138e-01
2.085889570552147340e-02
2.208588957055214810e-02
5.877300613496933002e-01
5.950920245398773067e-01
6.024539877300613133e-01
6.098159509202454309e-01
6.159509202453987697e-01
6.196319018404907730e-01
6.269938650306748906e-01
6.319018404907975617e-01
6.343558282208588972e-01
6.417177914110429038e-01
3.300613496932515156e-01
6.503067484662576891e-01
3.349693251533742422e-01
1.717791411042944930e-02
1.717791411042944930e-02
3.349693251533742422e-01
3.349693251533742422e-01
6.527607361963190247e-01
1.595092024539877459e-02
1.472392638036809816e-02
3.312883435582821834e-01
1.226993865030674875e-02
3.325153374233129067e-01
6.503067484662576891e-01
8.098159509202453865e-01
9.656441717791410806e-01
6.503067484662576891e-01
6.478527607361963536e-01
6.478527607361963536e-01
9.656441717791410806e-01
9.668711656441717484e-01
9.668711656441717484e-01
9.680981595092024161e-01
9.705521472392637516e-01
9.717791411042945304e-01
9.742331288343558660e-01
3.177914110429447825e-01
0.000000000000000000e+00
0.000000000000000000e+00
6.368098159509202327e-01
6.404907975460122360e-01
9.680981595092024161e-01
9.693251533742330839e-01
9.705521472392637516e-01
9.656441717791410806e-01
6.478527607361963536e-01
6.466257668711656859e-01
6.466257668711656859e-01
9.644171779141104128e-01
8.073619631901840510e-01
9.656441717791410806e-01
9.693251533742330839e-01
9.877300613496932113e-01
9.779141104294478692e-01
9.914110429447853257e-01
6.503067484662576891e-01
3.288343558282208479e-01
8.588957055214724648e-03
8.588957055214724648e-03
4.907975460122699675e-03
9.852760736196318758e-01
9.865030674846625436e-01
9.877300613496932113e-01
6.588957055214723635e-01
6.576687116564416957e-01
6.576687116564416957e-01
6.588957055214723635e-01
6.564417177914110280e-01
6.564417177914110280e-01
6.588957055214723635e-01
6.601226993865030312e-01
9.877300613496932113e-01
9.901840490797545469e-01
9.914110429447853257e-01
6.613496932515336990e-01
6.613496932515336990e-01
6.601226993865030312e-01
6.601226993865030312e-01
3.361963190184049100e-01
6.601226993865030312e-01
6.613496932515336990e-01
6.625766871165643668e-01
9.877300613496932113e-01
9.889570552147238791e-01
9.926380368098159934e-01
6.650306748466258133e-01
3.435582822085889720e-01
6.674846625766871488e-01
2.699386503067484691e-02
2.944785276073619631e-02
9.865030674846625436e-01
9.877300613496932113e-01
9.877300613496932113e-01
6.797546012269938265e-01
6.822085889570551620e-01
6.858895705521472763e-01
6.858895705521472763e-01
6.858895705521472763e-01
6.871165644171779441e-01
6.895705521472392796e-01
6.944785276073619507e-01
9.865030674846625436e-01
9.877300613496932113e-01
7.067484662576687393e-01
6.993865030674846217e-01
7.165644171779140814e-01
7.202453987730060847e-01
7.177914110429447492e-01
7.116564417177914104e-01
7.128834355828220781e-01
7.116564417177914104e-01
9.779141104294478692e-01
9.889570552147238791e-01
9.877300613496932113e-01
9.950920245398773289e-01
3.865030674846625658e-01
3.865030674846625658e-01
6.625766871165644778e-02
6.625766871165644778e-02
7.116564417177914104e-01
9.975460122699386645e-01
9.914110429447853257e-01
9.852760736196318758e-01
9.754601226993865337e-01
9.644171779141104128e-01
7.190184049079754169e-01
7.165644171779140814e-01
3.938650306748466279e-01
3.963190184049079634e-01
7.251533742331288668e-01
9.791411042944785370e-01
9.828220858895705403e-01
9.779141104294478692e-01
9.766871165644172015e-01
9.766871165644172015e-01
9.766871165644172015e-01
9.779141104294478692e-01
9.791411042944785370e-01
1.000000000000000000e+00
9.963190184049079967e-01
9.815950920245398725e-01
7.251533742331288668e-01
8.343558282208589361e-02
8.588957055214724301e-02
8.834355828220859241e-02
4.061349693251533610e-01
4.061349693251533610e-01
7.251533742331288668e-01
9.570552147239264063e-02
4.134969325153374231e-01
7.312883435582822056e-01
7.312883435582822056e-01
7.312883435582822056e-01
7.312883435582822056e-01
4.147239263803680909e-01
9.693251533742330839e-02
9.693251533742330839e-02
4.159509202453987586e-01
4.159509202453987586e-01
4.159509202453987586e-01
4.147239263803680909e-01
4.134969325153374231e-01
7.239263803680981990e-01
9.815950920245399003e-02
4.098159509202454198e-01
7.214723926380368635e-01
4.085889570552146965e-01
1.018404907975460072e-01
1.030674846625766888e-01
4.098159509202454198e-01
4.098159509202454198e-01
7.153374233128834137e-01
7.190184049079754169e-01
1.079754601226993876e-01
1.165644171779141036e-01
1.239263803680981657e-01
4.294478527607362150e-01
4.343558282208588861e-01
7.435582822085889942e-01
7.460122699386503298e-01
7.484662576687116653e-01
4.404907975460122804e-01
7.533742331288343363e-01
1.325153374233128956e-01
1.312883435582822000e-01
7.607361963190184539e-01
7.644171779141104572e-01
1.423312883435582932e-01
7.680981595092024605e-01
4.588957055214724079e-01
4.588957055214724079e-01
4.588957055214724079e-01
1.447852760736196287e-01
7.619631901840491217e-01
7.398773006134968799e-01
6.895705521472392796e-01
6.159509202453987697e-01
5.263803680981594679e-01
5.067484662576686727e-01
5.460122699386502632e-01
5.877300613496933002e-01
6.736196319018404877e-01
7.423312883435583265e-01
1.006134969325153394e-01
1.116564417177914048e-01
1.165644171779141036e-01
4.343558282208588861e-01
4.331288343558282183e-01
4.319018404907975506e-01
1.177914110429447853e-01
4.306748466257668828e-01
7.435582822085889942e-01
7.411042944785276587e-01
4.282208588957055473e-01
1.153374233128834359e-01
4.269938650306748240e-01
4.269938650306748240e-01
4.257668711656441562e-01
7.361963190184048766e-01
7.361963190184048766e-01
4.245398773006134885e-01
4.233128834355828207e-01
4.220858895705521530e-01
1.104294478527607370e-01
4.196319018404908174e-01
7.251533742331288668e-01
1.079754601226993876e-01
7.190184049079754169e-01
7.165644171779140814e-01
7.141104294478527459e-01
7.092024539877300748e-01
7.055214723926380715e-01
7.018404907975459572e-01
7.607361963190184539e-02
7.607361963190184539e-02
7.484662576687116375e-02
7.361963190184049599e-02
7.484662576687116375e-02
7.730061349693251316e-02
1.950920245398773123e-01
1.914110429447852813e-01
1.901840490797546135e-01
1.987730061349693156e-01
1.914110429447852813e-01
1.926380368098159490e-01
1.815950920245398836e-01
1.901840490797546135e-01
1.815950920245398836e-01
1.803680981595092159e-01
1.815950920245398836e-01
1.865030674846625824e-01
1.889570552147239180e-01
1.889570552147239180e-01
3.435582822085889859e-02
3.251533742331288446e-01
1.546012269938650263e-01
1.570552147239263896e-01
1.644171779141104239e-01
1.644171779141104239e-01
1.742331288343558215e-01
1.803680981595092159e-01
1.865030674846625824e-01
1.889570552147239180e-01
1.963190184049079801e-01
2.000000000000000111e-01
2.024539877300613466e-01
1.975460122699386478e-01
1.938650306748466168e-01
1.852760736196319147e-01
1.779141104294478526e-01
1.705521472392637905e-01
1.644171779141104239e-01
1.619631901840490884e-01
1.582822085889570574e-01
1.558282208588956941e-01
6.822085889570551620e-01
6.822085889570551620e-01
3.705521472392638294e-01
1.766871165644171848e-01
1.766871165644171848e-01
1.779141104294478526e-01
1.791411042944785204e-01
1.742331288343558215e-01
1.644171779141104239e-01
1.742331288343558215e-01
1.644171779141104239e-01
1.742331288343558215e-01
1.742331288343558215e-01
1.742331288343558215e-01
1.742331288343558215e-01
1.570552147239263896e-01
1.521472392638036908e-01
3.680981595092024383e-01
3.680981595092024383e-01
3.693251533742331061e-01
6.871165644171779441e-01
6.846625766871166086e-01
3.717791411042944971e-01
3.717791411042944971e-01
6.797546012269938265e-01
6.773006134969324910e-01
6.773006134969324910e-01
3.644171779141104350e-01
3.644171779141104350e-01
6.797546012269938265e-01
3.668711656441717706e-01
5.398773006134969382e-02
3.680981595092024383e-01
6.822085889570551620e-01
6.822085889570551620e-01
6.846625766871166086e-01
3.730061349693251649e-01
5.889570552147239263e-02
5.889570552147239263e-02
3.742331288343558326e-01
3.742331288343558326e-01
5.889570552147239263e-02
3.730061349693251649e-01
3.730061349693251649e-01
6.871165644171779441e-01
3.730061349693251649e-01
3.730061349693251649e-01
5.644171779141104323e-02
3.693251533742331061e-01
3.705521472392638294e-01
6.871165644171779441e-01
6.871165644171779441e-01
3.730061349693251649e-01
3.742331288343558326e-01
3.742331288343558326e-01
3.754601226993865004e-01
6.134969325153374203e-02
6.134969325153374203e-02
6.134969325153374203e-02
6.134969325153374203e-02
6.012269938650306733e-02
6.895705521472392796e-01
3.754601226993865004e-01
6.134969325153374203e-02
6.134969325153374203e-02
6.895705521472392796e-01
6.895705521472392796e-01
3.766871165644171682e-01
6.380368098159509838e-02
6.134969325153374203e-02
3.766871165644171682e-01
3.766871165644171682e-01
3.766871165644171682e-01
3.766871165644171682e-01
3.754601226993865004e-01
3.754601226993865004e-01
3.754601226993865004e-01
3.754601226993865004e-01
6.134969325153374203e-02
6.134969325153374203e-02
3.766871165644171682e-01
6.134969325153374203e-02
3.742331288343558326e-01
6.871165644171779441e-01
6.871165644171779441e-01
3.730061349693251649e-01
6.895705521472392796e-01
5.889570552147239263e-02
3.754601226993865004e-01
3.766871165644171682e-01
3.791411042944785037e-01
6.944785276073619507e-01
6.625766871165644778e-02
6.969325153374232862e-01
3.840490797546012303e-01
3.840490797546012303e-01
3.865030674846625658e-01
3.877300613496932336e-01
7.042944785276074038e-01
7.079754601226994071e-01
3.901840490797546246e-01
7.067484662576687393e-01
3.914110429447852924e-01
3.914110429447852924e-01
3.926380368098159601e-01
7.852760736196319480e-02
7.092024539877300748e-01
7.092024539877300748e-01
7.092024539877300748e-01
8.098159509202454420e-02
8.098159509202454420e-02
8.098159509202454420e-02
8.098159509202454420e-02
8.098159509202454420e-02
7.116564417177914104e-01
7.141104294478527459e-01
7.141104294478527459e-01
8.343558282208589361e-02
8.343558282208589361e-02
3.987730061349692989e-01
3.975460122699386312e-01
3.975460122699386312e-01
7.116564417177914104e-01
3.950920245398772956e-01
7.852760736196319480e-02
7.092024539877300748e-01
7.092024539877300748e-01
3.938650306748466279e-01
8.098159509202454420e-02
7.116564417177914104e-01
7.116564417177914104e-01
7.116564417177914104e-01
3.938650306748466279e-01
7.607361963190184539e-02
3.914110429447852924e-01
7.067484662576687393e-01
7.361963190184049599e-02
3.877300613496932336e-01
7.116564417177914659e-02
6.944785276073619507e-01
6.380368098159509838e-02
5.889570552147239263e-02
6.920245398773006151e-01
6.920245398773006151e-01
6.883435582822086118e-01
6.871165644171779441e-01
6.871165644171779441e-01
6.834355828220859408e-01
9.803680981595092048e-01
9.791411042944785370e-01
9.791411042944785370e-01
4.171779141104294680e-02
6.723926380368098199e-01
6.723926380368098199e-01
6.723926380368098199e-01
6.711656441717791521e-01
6.674846625766871488e-01
6.650306748466258133e-01
6.625766871165643668e-01
9.840490797546012081e-01
9.840490797546012081e-01
9.840490797546012081e-01
9.815950920245398725e-01
6.576687116564416957e-01
6.490797546012270214e-01
6.466257668711656859e-01
6.466257668711656859e-01
6.503067484662576891e-01
6.552147239263803602e-01
6.601226993865030312e-01
8.159509202453987253e-01
9.705521472392637516e-01
9.803680981595092048e-01
9.815950920245398725e-01
9.828220858895705403e-01
4.662576687116564561e-02
3.619631901840490995e-01
6.773006134969324910e-01
6.809815950920244942e-01
9.877300613496932113e-01
9.877300613496932113e-01
9.889570552147238791e-01
6.871165644171779441e-01
6.858895705521472763e-01
6.846625766871166086e-01
6.871165644171779441e-01
6.871165644171779441e-01
6.871165644171779441e-01
6.687116564417178166e-01
6.245398773006134441e-01
5.914110429447853035e-01
5.423312883435582599e-01
4.822085889570552064e-01
4.380368098159509449e-01
5.018404907975460016e-01
5.460122699386502632e-01
6.036809815950919811e-01
3.349693251533742422e-01
6.601226993865030312e-01
6.564417177914110280e-01
6.564417177914110280e-01
9.889570552147238791e-01
9.889570552147238791e-01
9.926380368098159934e-01
3.423312883435583043e-01
6.576687116564416957e-01
3.435582822085889720e-01
2.944785276073619631e-02
2.944785276073619631e-02
9.877300613496932113e-01
9.889570552147238791e-01
9.889570552147238791e-01
6.601226993865030312e-01
6.564417177914110280e-01
6.515337423312883569e-01
6.515337423312883569e-01
6.515337423312883569e-01
6.478527607361963536e-01
6.429447852760735715e-01
6.429447852760735715e-01
9.889570552147238791e-01
9.889570552147238791e-01
9.877300613496932113e-01
6.331288343558282294e-01
6.331288343558282294e-01
6.355828220858895650e-01
6.355828220858895650e-01
6.331288343558282294e-01
6.343558282208588972e-01
6.331288343558282294e-01
6.355828220858895650e-01
9.865030674846625436e-01
9.865030674846625436e-01
9.938650306748466612e-01
3.128834355828221114e-01
3.128834355828221114e-01
6.159509202453987697e-01
3.104294478527607204e-01
6.147239263803681020e-01
6.122699386503067664e-01
6.098159509202454309e-01
6.024539877300613133e-01
9.754601226993865337e-01
9.693251533742330839e-01
9.668711656441717484e-01
7.742331288343557993e-01
5.803680981595091826e-01
5.791411042944785148e-01
5.791411042944785148e-01
9.877300613496932113e-01
9.852760736196318758e-01
9.852760736196318758e-01
5.999999999999999778e-01
6.036809815950919811e-01
6.110429447852760987e-01
6.147239263803681020e-01
6.196319018404907730e-01
6.294478527607362262e-01
6.404907975460122360e-01
6.490797546012270214e-01
9.828220858895705403e-01
9.852760736196318758e-01
9.865030674846625436e-01
6.650306748466258133e-01
6.723926380368098199e-01
6.785276073619631587e-01
6.809815950920244942e-01
6.834355828220859408e-01
6.834355828220859408e-01
6.846625766871166086e-01
9.877300613496932113e-01
9.889570552147238791e-01
9.926380368098159934e-01
6.846625766871166086e-01
3.705521472392638294e-01
6.895705521472392796e-01
6.981595092024539539e-01
7.006134969325152895e-01
9.644171779141104128e-01
9.668711656441717484e-01
9.742331288343558660e-01
9.803680981595092048e-01
9.889570552147238791e-01
9.950920245398773289e-01
8.539877300613496480e-01
7.079754601226994071e-01
7.067484662576687393e-01
7.116564417177914104e-01
9.950920245398773289e-01
9.901840490797545469e-01
9.840490797546012081e-01
7.202453987730060847e-01
9.693251533742330839e-01
9.680981595092024161e-01
9.644171779141104128e-01
7.214723926380368635e-01
3.987730061349692989e-01
8.220858895705521197e-02
4.012269938650306900e-01
7.190184049079754169e-01
7.214723926380368635e-01
8.834355828220859241e-02
7.239263803680981990e-01
7.263803680981595345e-01
7.276073619631902023e-01
4.110429447852760876e-01
4.122699386503067553e-01
4.122699386503067553e-01
9.325153374233129122e-02
9.325153374233129122e-02
4.122699386503067553e-01
9.079754601226994182e-02
8.834355828220859241e-02
4.061349693251533610e-01
8.834355828220859241e-02
8.834355828220859241e-02
9.079754601226994182e-02
4.098159509202454198e-01
9.079754601226994182e-02
9.079754601226994182e-02
9.079754601226994182e-02
7.312883435582822056e-01
7.312883435582822056e-01
4.171779141104294264e-01
4.184049079754601497e-01
7.386503067484662122e-01
7.386503067484662122e-01
4.196319018404908174e-01
1.006134969325153394e-01
1.006134969325153394e-01
4.208588957055214852e-01
4.208588957055214852e-01
7.411042944785276587e-01
1.055214723926380382e-01
4.257668711656441562e-01
7.472392638036809975e-01
7.460122699386503298e-01
7.460122699386503298e-01
7.460122699386503298e-01
7.460122699386503298e-01
7.460122699386503298e-01
7.460122699386503298e-01
4.245398773006134885e-01
4.245398773006134885e-01
1.042944785276073566e-01
1.055214723926380382e-01
7.460122699386503298e-01
7.460122699386503298e-01
4.306748466257668828e-01
1.116564417177914048e-01
4.319018404907975506e-01
4.319018404907975506e-01
4.319018404907975506e-01
4.319018404907975506e-01
4.319018404907975506e-01
4.319018404907975506e-01
4.319018404907975506e-01
4.343558282208588861e-01
1.177914110429447853e-01
1.177914110429447853e-01
1.177914110429447853e-01
1.177914110429447853e-01
1.177914110429447853e-01
1.177914110429447853e-01
1.177914110429447853e-01
1.177914110429447853e-01
7.582822085889570074e-01
7.582822085889570074e-01
4.404907975460122804e-01
7.607361963190184539e-01
1.177914110429447853e-01
1.177914110429447853e-01
1.177914110429447853e-01
4.380368098159509449e-01
7.582822085889570074e-01
5.981595092024539762e-01
4.380368098159509449e-01
4.380368098159509449e-01
7.582822085889570074e-01
7.595092024539876752e-01
7.631901840490797895e-01
1.202453987730061347e-01
4.404907975460122804e-01
4.392638036809816127e-01
4.392638036809816127e-01
7.582822085889570074e-01
4.380368098159509449e-01
4.380368098159509449e-01
4.380368098159509449e-01
4.368098159509202216e-01
4.368098159509202216e-01
7.558282208588956719e-01
4.355828220858895539e-01
4.355828220858895539e-01
1.153374233128834359e-01
1.153374233128834359e-01
1.153374233128834359e-01
1.153374233128834359e-01
4.355828220858895539e-01
1.153374233128834359e-01
1.190184049079754669e-01
1.214723926380368163e-01
7.644171779141104572e-01
4.478527607361963425e-01
1.300613496932515323e-01
7.705521472392637961e-01
1.276073619631901968e-01
1.276073619631901968e-01
4.478527607361963425e-01
4.478527607361963425e-01
4.478527607361963425e-01
4.478527607361963425e-01
4.466257668711656192e-01
4.466257668711656192e-01
7.680981595092024605e-01
4.453987730061349515e-01
4.453987730061349515e-01
4.441717791411042837e-01
7.631901840490797895e-01
7.631901840490797895e-01
4.429447852760736160e-01
1.251533742331288335e-01
4.429447852760736160e-01
7.607361963190184539e-01
4.404907975460122804e-01
7.558282208588956719e-01
7.533742331288343363e-01
7.509202453987730008e-01
7.496932515337423331e-01
1.153374233128834359e-01
1.153374233128834359e-01
1.153374233128834359e-01
1.153374233128834359e-01
1.153374233128834359e-01
7.484662576687116653e-01
7.509202453987730008e-01
7.558282208588956719e-01
7.582822085889570074e-01
1.202453987730061347e-01
4.392638036809816127e-01
4.404907975460122804e-01
7.607361963190184539e-01
7.607361963190184539e-01
1.226993865030674841e-01
1.202453987730061347e-01
1.165644171779141036e-01
7.558282208588956719e-01
4.343558282208588861e-01
4.331288343558282183e-01
4.331288343558282183e-01
7.361963190184049599e-02
7.361963190184049599e-02
7.361963190184049599e-02
7.607361963190184539e-02
1.128834355828220865e-01
1.828220858895705514e-01
2.981595092024539873e-01
3.546012269938650374e-01
3.852760736196318980e-01
5.595092024539877196e-01
5.987730061349693100e-01
4.404907975460122804e-01
3.435582822085889720e-01
2.588957055214723968e-01
1.717791411042944860e-01
1.202453987730061347e-01
9.202453987730060958e-02
1.791411042944785204e-01
1.791411042944785204e-01
1.717791411042944860e-01
1.656441717791410917e-01
1.619631901840490884e-01
1.570552147239263896e-01
1.533742331288343586e-01
3.791411042944785037e-01
3.766871165644171682e-01
1.963190184049079801e-01
1.766871165644171848e-01
1.987730061349693156e-01
1.779141104294478526e-01
1.730061349693251538e-01
1.644171779141104239e-01
1.742331288343558215e-01
1.766871165644171848e-01
1.730061349693251538e-01
1.742331288343558215e-01
1.766871165644171848e-01
1.705521472392637905e-01
1.693251533742331227e-01
1.754601226993864893e-01
1.889570552147239180e-01
7.177914110429447492e-01
7.214723926380368635e-01
7.202453987730060847e-01
7.190184049079754169e-01
7.177914110429447492e-01
7.165644171779140814e-01
7.165644171779140814e-01
7.141104294478527459e-01
7.116564417177914104e-01
7.079754601226994071e-01
7.042944785276074038e-01
7.006134969325152895e-01
6.969325153374232862e-01
6.932515337423312829e-01
6.871165644171779441e-01
6.822085889570551620e-01
6.760736196319018232e-01
6.736196319018404877e-01
6.723926380368098199e-01
6.723926380368098199e-01
6.711656441717791521e-01
6.699386503067484844e-01
6.699386503067484844e-01
6.699386503067484844e-01
6.711656441717791521e-01
6.748466257668711554e-01
6.785276073619631587e-01
6.858895705521472763e-01
6.883435582822086118e-01
1.226993865030674875e-02
2.085889570552147340e-02
2.699386503067484691e-02
3.312883435582822389e-02
3.926380368098159740e-02
3.815950920245398947e-01
4.662576687116564561e-02
3.901840490797546246e-01
7.337423312883435411e-01
7.386503067484662122e-01
7.447852760736196620e-01
7.447852760736196620e-01
7.472392638036809975e-01
7.460122699386503298e-01
7.460122699386503298e-01
7.472392638036809975e-01
7.484662576687116653e-01
7.484662576687116653e-01
3.987730061349692989e-01
7.484662576687116653e-01
4.662576687116564561e-02
4.662576687116564561e-02
7.460122699386503298e-01
3.975460122699386312e-01
3.975460122699386312e-01
4.907975460122699501e-02
7.435582822085889942e-01
7.423312883435583265e-01
7.411042944785276587e-01
3.950920245398772956e-01
7.361963190184048766e-01
3.938650306748466279e-01
3.926380368098159601e-01
7.312883435582822056e-01
7.312883435582822056e-01
7.312883435582822056e-01
5.889570552147239263e-02
3.950920245398772956e-01
3.963190184049079634e-01
3.963190184049079634e-01
7.312883435582822056e-01
3.975460122699386312e-01
3.975460122699386312e-01
7.312883435582822056e-01
3.975460122699386312e-01
6.625766871165644778e-02
3.975460122699386312e-01
7.263803680981595345e-01
3.963190184049079634e-01
6.871165644171779718e-02
6.871165644171779718e-02
3.963190184049079634e-01
7.239263803680981990e-01
7.239263803680981990e-01
7.214723926380368635e-01
7.190184049079754169e-01
3.938650306748466279e-01
3.938650306748466279e-01
3.938650306748466279e-01
3.938650306748466279e-01
3.938650306748466279e-01
3.938650306748466279e-01
3.938650306748466279e-01
7.116564417177914659e-02
7.116564417177914659e-02
7.116564417177914659e-02
7.116564417177914659e-02
3.938650306748466279e-01
7.165644171779140814e-01
3.938650306748466279e-01
7.141104294478527459e-01
7.141104294478527459e-01
7.116564417177914104e-01
7.128834355828220781e-01
7.128834355828220781e-01
7.104294478527607426e-01
7.079754601226994071e-01
7.067484662576687393e-01
7.067484662576687393e-01
7.067484662576687393e-01
7.067484662576687393e-01
7.067484662576687393e-01
3.889570552147239013e-01
3.889570552147239013e-01
3.889570552147239013e-01
3.889570552147239013e-01
3.889570552147239013e-01
3.889570552147239013e-01
7.116564417177914659e-02
7.042944785276074038e-01
7.042944785276074038e-01
7.079754601226994071e-01
7.092024539877300748e-01
7.116564417177914104e-01
7.116564417177914104e-01
3.901840490797546246e-01
7.092024539877300748e-01
3.889570552147239013e-01
7.067484662576687393e-01
3.877300613496932336e-01
7.042944785276074038e-01
7.042944785276074038e-01
3.865030674846625658e-01
7.116564417177914659e-02
7.116564417177914659e-02
7.116564417177914659e-02
3.865030674846625658e-01
6.993865030674846217e-01
3.840490797546012303e-01
6.969325153374232862e-01
6.969325153374232862e-01
3.852760736196318980e-01
3.852760736196318980e-01
6.993865030674846217e-01
6.993865030674846217e-01
3.852760736196318980e-01
7.018404907975459572e-01
7.067484662576687393e-01
7.128834355828220781e-01
7.165644171779140814e-01
3.926380368098159601e-01
6.380368098159509838e-02
6.380368098159509838e-02
3.926380368098159601e-01
3.926380368098159601e-01
6.380368098159509838e-02
3.926380368098159601e-01
3.926380368098159601e-01
3.926380368098159601e-01
3.926380368098159601e-01
3.926380368098159601e-01
3.926380368098159601e-01
3.926380368098159601e-01
7.190184049079754169e-01
7.165644171779140814e-01
7.165644171779140814e-01
3.914110429447852924e-01
3.914110429447852924e-01
3.914110429447852924e-01
3.914110429447852924e-01
3.914110429447852924e-01
3.914110429447852924e-01
3.914110429447852924e-01
3.914110429447852924e-01
3.914110429447852924e-01
3.914110429447852924e-01
7.128834355828220781e-01
7.092024539877300748e-01
3.828220858895705625e-01
7.067484662576687393e-01
3.803680981595092270e-01
3.815950920245398947e-01
3.803680981595092270e-01
4.785276073619632031e-02
4.539877300613497091e-02
3.766871165644171682e-01
7.092024539877300748e-01
7.104294478527607426e-01
3.828220858895705625e-01
5.276073619631901912e-02
3.877300613496932336e-01
3.889570552147239013e-01
7.251533742331288668e-01
7.312883435582822056e-01
7.337423312883435411e-01
7.349693251533742089e-01
7.374233128834355444e-01
7.411042944785276587e-01
4.024539877300613577e-01
7.435582822085889942e-01
7.472392638036809975e-01
7.521472392638036686e-01
7.509202453987730008e-01
5.889570552147239263e-02
5.889570552147239263e-02
5.889570552147239263e-02
4.907975460122699501e-02
3.190184049079754919e-02
1.840490797546012400e-02
7.472392638036809975e-01
7.730061349693251316e-02
1.570552147239263896e-01
2.650306748466257911e-01
3.533742331288343697e-01
3.742331288343558326e-01
5.619631901840490551e-01
6.024539877300613133e-01
4.552147239263803491e-01
3.349693251533742422e-01
2.368098159509202383e-01
1.484662576687116597e-01
8.834355828220859241e-02
6.012269938650306733e-02
4.049079754601227210e-02
3.190184049079754919e-02
2.576687116564417221e-02
2.085889570552147340e-02
1.717791411042944930e-02
3.877300613496932336e-01
1.226993865030674875e-02
3.865030674846625658e-01
3.865030674846625658e-01
3.865030674846625658e-01
3.865030674846625658e-01
7.730061349693251316e-01
7.730061349693251316e-01
7.742331288343557993e-01
7.742331288343557993e-01
7.742331288343557993e-01
7.742331288343557993e-01
7.730061349693251316e-01
7.705521472392637961e-01
7.680981595092024605e-01
7.656441717791411250e-01
7.644171779141104572e-01
7.631901840490797895e-01
7.631901840490797895e-01
7.607361963190184539e-01
7.607361963190184539e-01
7.582822085889570074e-01
7.558282208588956719e-01
7.558282208588956719e-01
7.533742331288343363e-01
7.509202453987730008e-01
7.484662576687116653e-01
7.460122699386503298e-01
7.435582822085889942e-01
7.398773006134968799e-01
7.361963190184048766e-01
7.337423312883435411e-01
7.288343558282208701e-01
7.226993865030675313e-01
7.190184049079754169e-01
7.141104294478527459e-01
7.104294478527607426e-01
7.067484662576687393e-01
7.042944785276074038e-01
7.006134969325152895e-01
6.981595092024539539e-01
6.969325153374232862e-01
6.993865030674846217e-01
7.018404907975459572e-01
7.042944785276074038e-01
7.104294478527607426e-01
7.165644171779140814e-01
7.226993865030675313e-01
7.300613496932515378e-01
7.398773006134968799e-01
7.435582822085889942e-01
1.349693251533742346e-02
1.595092024539877459e-02
3.938650306748466279e-01
7.668711656441717928e-01
3.190184049079754919e-02
3.435582822085889859e-02
7.779141104294478026e-01
7.803680981595092492e-01
4.098159509202454198e-01
4.098159509202454198e-01
4.098159509202454198e-01
4.098159509202454198e-01
3.435582822085889859e-02
3.435582822085889859e-02
4.085889570552146965e-01
4.085889570552146965e-01
4.085889570552146965e-01
7.828220858895705847e-01
4.073619631901840288e-01
4.073619631901840288e-01
4.073619631901840288e-01
4.073619631901840288e-01
3.190184049079754919e-02
3.190184049079754919e-02
3.190184049079754919e-02
4.085889570552146965e-01
4.085889570552146965e-01
7.852760736196319202e-01
7.852760736196319202e-01
7.852760736196319202e-01
4.098159509202454198e-01
4.098159509202454198e-01
4.110429447852760876e-01
4.110429447852760876e-01
4.110429447852760876e-01
3.926380368098159740e-02
4.122699386503067553e-01
7.791411042944785814e-01
4.110429447852760876e-01
4.294478527607362150e-02
7.754601226993864671e-01
7.766871165644171349e-01
7.779141104294478026e-01
7.828220858895705847e-01
7.828220858895705847e-01
4.159509202453987586e-01
4.907975460122699501e-02
7.828220858895705847e-01
7.840490797546012525e-01
7.840490797546012525e-01
7.852760736196319202e-01
7.852760736196319202e-01
7.852760736196319202e-01
7.852760736196319202e-01
4.171779141104294264e-01
4.171779141104294264e-01
4.171779141104294264e-01
4.184049079754601497e-01
7.803680981595092492e-01
7.766871165644171349e-01
7.742331288343557993e-01
7.705521472392637961e-01
7.680981595092024605e-01
7.680981595092024605e-01
7.656441717791411250e-01
6.134969325153374203e-02
6.134969325153374203e-02
7.631901840490797895e-01
4.134969325153374231e-01
6.380368098159509838e-02
4.122699386503067553e-01
7.595092024539876752e-01
7.570552147239263396e-01
4.098159509202454198e-01
6.625766871165644778e-02
7.509202453987730008e-01
4.098159509202454198e-01
4.098159509202454198e-01
4.098159509202454198e-01
7.484662576687116653e-01
4.098159509202454198e-01
7.116564417177914659e-02
4.098159509202454198e-01
7.484662576687116653e-01
4.098159509202454198e-01
4.098159509202454198e-01
4.098159509202454198e-01
4.098159509202454198e-01
7.484662576687116653e-01
7.484662576687116653e-01
7.484662576687116653e-01
6.871165644171779718e-02
4.098159509202454198e-01
4.110429447852760876e-01
4.110429447852760876e-01
4.110429447852760876e-01
7.533742331288343363e-01
4.110429447852760876e-01
7.509202453987730008e-01
7.509202453987730008e-01
7.484662576687116653e-01
4.098159509202454198e-01
7.116564417177914659e-02
4.085889570552146965e-01
4.085889570552146965e-01
4.085889570552146965e-01
4.085889570552146965e-01
7.435582822085889942e-01
7.435582822085889942e-01
7.435582822085889942e-01
4.073619631901840288e-01
4.073619631901840288e-01
4.073619631901840288e-01
4.073619631901840288e-01
4.061349693251533610e-01
4.061349693251533610e-01
4.049079754601226933e-01
7.374233128834355444e-01
4.049079754601226933e-01
4.049079754601226933e-01
4.049079754601226933e-01
4.049079754601226933e-01
4.049079754601226933e-01
4.049079754601226933e-01
4.049079754601226933e-01
4.049079754601226933e-01
4.049079754601226933e-01
4.049079754601226933e-01
7.337423312883435411e-01
4.036809815950920255e-01
4.024539877300613577e-01
4.024539877300613577e-01
7.263803680981595345e-01
7.239263803680981990e-01
7.190184049079754169e-01
7.153374233128834137e-01
7.116564417177914104e-01
7.092024539877300748e-01
7.042944785276074038e-01
7.018404907975459572e-01
6.981595092024539539e-01
6.932515337423312829e-01
6.883435582822086118e-01
6.883435582822086118e-01
6.920245398773006151e-01
6.969325153374232862e-01
6.993865030674846217e-01
7.852760736196319480e-02
3.914110429447852924e-01
8.098159509202454420e-02
3.938650306748466279e-01
8.343558282208589361e-02
3.963190184049079634e-01
3.975460122699386312e-01
3.975460122699386312e-01
8.588957055214724301e-02
3.987730061349692989e-01
7.153374233128834137e-01
3.987730061349692989e-01
3.987730061349692989e-01
7.141104294478527459e-01
7.141104294478527459e-01
8.343558282208589361e-02
7.361963190184049599e-02
4.662576687116564561e-02
2.822085889570552161e-02
3.607361963190184317e-01
1.190184049079754669e-01
2.147239263803681075e-01
3.263803680981595123e-01
3.717791411042944971e-01
4.233128834355828207e-01
5.680981595092025049e-01
4.920245398773006040e-01
3.644171779141104350e-01
2.920245398773005929e-01
1.263803680981595012e-01
7.239263803680981435e-02
7.730061349693251316e-02
1.595092024539877251e-01
1.619631901840490884e-01
1.680981595092024550e-01
1.742331288343558215e-01
1.828220858895705514e-01
1.877300613496932502e-01
1.938650306748466168e-01
1.987730061349693156e-01
2.012269938650306789e-01
1.987730061349693156e-01
1.963190184049079801e-01
1.877300613496932502e-01
1.815950920245398836e-01
1.730061349693251538e-01
1.668711656441717872e-01
1.607361963190183929e-01
1.570552147239263896e-01
1.067484662576687060e-01
3.877300613496932336e-01
7.116564417177914104e-01
1.803680981595092159e-01
1.779141104294478526e-01
1.791411042944785204e-01
1.815950920245398836e-01
1.742331288343558215e-01
2.000000000000000111e-01
1.742331288343558215e-01
1.865030674846625824e-01
2.024539877300613466e-01
1.865030674846625824e-01
1.717791411042944860e-01
1.742331288343558215e-01
1.828220858895705514e-01
1.828220858895705514e-01
1.852760736196319147e-01
3.926380368098159740e-02
3.460122699386503076e-01
6.503067484662576891e-01
6.490797546012270214e-01
6.417177914110429038e-01
6.343558282208588972e-01
1.717791411042944930e-02
3.202453987730061180e-01
7.361963190184049079e-03
3.680981595092024539e-03
0.000000000000000000e+00
3.153374233128834470e-01
6.331288343558282294e-01
3.165644171779141147e-01
7.361963190184049079e-03
3.263803680981595123e-01
6.453987730061350181e-01
6.515337423312883569e-01
6.625766871165643668e-01
3.582822085889570407e-01
6.809815950920244942e-01
6.883435582822086118e-01
7.006134969325152895e-01
7.030674846625767360e-01
7.104294478527607426e-01
7.141104294478527459e-01
3.975460122699386312e-01
7.607361963190184539e-02
4.000000000000000222e-01
7.852760736196319480e-02
7.975460122699386256e-02
8.220858895705521197e-02
8.343558282208589361e-02
7.214723926380368635e-01
4.024539877300613577e-01
7.190184049079754169e-01
7.190184049079754169e-01
4.012269938650306900e-01
7.165644171779140814e-01
7.165644171779140814e-01
4.000000000000000222e-01
7.141104294478527459e-01
4.000000000000000222e-01
4.000000000000000222e-01
8.588957055214724301e-02
8.588957055214724301e-02
3.987730061349692989e-01
8.588957055214724301e-02
3.975460122699386312e-01
3.963190184049079634e-01
3.963190184049079634e-01
8.588957055214724301e-02
3.975460122699386312e-01
3.975460122699386312e-01
7.079754601226994071e-01
7.055214723926380715e-01
6.993865030674846217e-01
6.969325153374232862e-01
9.079754601226994182e-02
9.079754601226994182e-02
3.950920245398772956e-01
8.957055214723926018e-02
6.993865030674846217e-01
6.993865030674846217e-01
6.993865030674846217e-01
3.963190184049079634e-01
3.963190184049079634e-01
6.993865030674846217e-01
6.969325153374232862e-01
6.957055214723926184e-01
6.920245398773006151e-01
6.920245398773006151e-01
9.570552147239264063e-02
9.570552147239264063e-02
9.570552147239264063e-02
3.938650306748466279e-01
3.938650306748466279e-01
3.938650306748466279e-01
3.938650306748466279e-01
3.938650306748466279e-01
6.895705521472392796e-01
3.914110429447852924e-01
9.693251533742330839e-02
9.815950920245399003e-02
9.815950920245399003e-02
9.815950920245399003e-02
9.815950920245399003e-02
9.815950920245399003e-02
9.815950920245399003e-02
9.815950920245399003e-02
9.815950920245399003e-02
9.815950920245399003e-02
9.815950920245399003e-02
9.815950920245399003e-02
3.926380368098159601e-01
6.846625766871166086e-01
6.846625766871166086e-01
1.006134969325153394e-01
1.006134969325153394e-01
1.006134969325153394e-01
6.883435582822086118e-01
6.834355828220859408e-01
3.914110429447852924e-01
6.822085889570551620e-01
6.871165644171779441e-01
6.895705521472392796e-01
6.895705521472392796e-01
9.815950920245399003e-02
3.926380368098159601e-01
3.926380368098159601e-01
3.926380368098159601e-01
6.895705521472392796e-01
6.883435582822086118e-01
6.871165644171779441e-01
9.815950920245399003e-02
9.815950920245399003e-02
6.871165644171779441e-01
6.871165644171779441e-01
6.871165644171779441e-01
6.871165644171779441e-01
6.871165644171779441e-01
3.926380368098159601e-01
3.926380368098159601e-01
3.926380368098159601e-01
3.926380368098159601e-01
3.914110429447852924e-01
3.914110429447852924e-01
3.914110429447852924e-01
3.914110429447852924e-01
3.914110429447852924e-01
3.914110429447852924e-01
3.914110429447852924e-01
3.914110429447852924e-01
3.914110429447852924e-01
9.570552147239264063e-02
9.570552147239264063e-02
9.570552147239264063e-02
6.895705521472392796e-01
6.895705521472392796e-01
6.895705521472392796e-01
3.926380368098159601e-01
6.871165644171779441e-01
9.570552147239264063e-02
3.901840490797546246e-01
6.846625766871166086e-01
6.846625766871166086e-01
9.325153374233129122e-02
9.325153374233129122e-02
3.877300613496932336e-01
6.809815950920244942e-01
3.852760736196318980e-01
6.797546012269938265e-01
3.852760736196318980e-01
6.797546012269938265e-01
6.748466257668711554e-01
3.791411042944785037e-01
6.699386503067484844e-01
6.699386503067484844e-01
6.723926380368098199e-01
6.748466257668711554e-01
6.785276073619631587e-01
6.809815950920244942e-01
9.079754601226994182e-02
6.871165644171779441e-01
6.907975460122699474e-01
3.926380368098159601e-01
3.938650306748466279e-01
3.950920245398772956e-01
3.950920245398772956e-01
3.963190184049079634e-01
3.963190184049079634e-01
3.963190184049079634e-01
6.969325153374232862e-01
6.969325153374232862e-01
6.969325153374232862e-01
3.975460122699386312e-01
3.987730061349692989e-01
7.006134969325152895e-01
1.067484662576687060e-01
1.092024539877300554e-01
6.944785276073619507e-01
1.055214723926380382e-01
9.447852760736195898e-02
5.582822085889570518e-01
5.177914110429447936e-01
4.760736196319018676e-01
4.797546012269938709e-01
5.386503067484662566e-01
5.668711656441717262e-01
6.503067484662576614e-02
8.957055214723926018e-02
8.834355828220859241e-02
8.588957055214724301e-02
3.901840490797546246e-01
3.901840490797546246e-01
3.901840490797546246e-01
8.588957055214724301e-02
8.834355828220859241e-02
8.834355828220859241e-02
3.914110429447852924e-01
8.588957055214724301e-02
3.914110429447852924e-01
6.969325153374232862e-01
8.343558282208589361e-02
3.901840490797546246e-01
6.993865030674846217e-01
3.901840490797546246e-01
8.098159509202454420e-02
7.018404907975459572e-01
3.901840490797546246e-01
6.957055214723926184e-01
6.957055214723926184e-01
7.239263803680981435e-02
7.116564417177914659e-02
3.815950920245398947e-01
3.803680981595092270e-01
6.920245398773006151e-01
6.846625766871166086e-01
6.809815950920244942e-01
6.760736196319018232e-01
6.723926380368098199e-01
6.723926380368098199e-01
6.257668711656441674e-02
6.134969325153374203e-02
3.644171779141104350e-01
6.662576687116564811e-01
6.625766871165643668e-01
4.785276073619632031e-02
4.662576687116564561e-02
3.926380368098159740e-02
3.680981595092024800e-02
3.067484662576687102e-02
2.576687116564417221e-02
6.576687116564416957e-01
1.717791411042944930e-02
1.104294478527607405e-02
4.907975460122699675e-03
3.263803680981595123e-01
3.251533742331288446e-01
6.539877300613496924e-01
6.564417177914110280e-01
6.601226993865030312e-01
6.613496932515336990e-01
6.638036809815951456e-01
6.662576687116564811e-01
6.699386503067484844e-01
6.797546012269938265e-01
6.871165644171779441e-01
6.944785276073619507e-01
4.907975460122699501e-02
5.153374233128834442e-02
