0.000000000000000000e+00
0.000000000000000000e+00
6.293426461493719509e-03
1.258685292298743902e-02
1.888027938448099893e-02
2.517370584597471844e-02
3.146713230746843448e-02
3.776055876896215746e-02
4.405398523045587350e-02
5.034741169194943688e-02
5.664083815344315292e-02
6.293426461493686896e-02
6.922769107643059194e-02
7.552111753792431492e-02
8.181454399941787137e-02
8.810797046091159435e-02
9.440139692240531732e-02
1.006948233838990264e-01
1.069882498453927494e-01
1.132816763068863058e-01
1.195751027683800288e-01
1.258685292298737379e-01
1.321619556913674609e-01
1.384553821528611839e-01
1.447488086143547403e-01
1.510422350758484633e-01
1.573356615373421863e-01
1.636290879988359093e-01
1.699225144603296322e-01
1.762159409218231887e-01
1.825093673833169117e-01
1.888027938448106346e-01
1.950962203063043576e-01
2.013896467677980529e-01
2.076830732292916371e-01
2.139764996907853323e-01
2.202699261522790553e-01
2.265633526137727782e-01
2.328567790752665012e-01
2.391502055367600577e-01
2.454436319982539472e-01
2.517370584597474759e-01
2.580304849212411988e-01
2.643239113827349218e-01
2.706173378442284783e-01
2.769107643057223678e-01
2.832041907672159242e-01
2.894976172287094807e-01
2.957910436902033702e-01
3.020844701516969266e-01
3.083778966131908161e-01
3.146713230746843726e-01
3.209647495361782621e-01
3.272581759976718185e-01
3.335516024591653750e-01
3.398450289206592645e-01
3.461384553821528209e-01
3.524318818436463774e-01
3.587253083051402669e-01
3.650187347666338233e-01
3.713121612281277129e-01
3.776055876896212693e-01
3.838990141511151588e-01
3.901924406126087153e-01
3.964858670741022717e-01
4.027792935355961057e-01
4.090727199970897177e-01
4.153661464585832741e-01
4.216595729200771081e-01
4.279529993815706645e-01
4.342464258430645541e-01
4.405398523045581105e-01
4.468332787660520000e-01
4.531267052275455565e-01
4.594201316890391129e-01
4.657135581505330024e-01
4.720069846120265589e-01
4.783004110735201153e-01
4.845938375350140048e-01
2.661064425770308106e-01
2.633053221288515489e-01
2.605042016806722871e-01
4.481792717086834771e-02
4.481792717086834771e-02
4.481792717086834771e-02
4.481792717086834771e-02
4.481792717086834771e-02
4.481792717086834771e-02
4.481792717086834771e-02
4.481792717086834771e-02
4.481792717086834771e-02
4.481792717086834771e-02
4.481792717086834771e-02
4.481792717086834771e-02
4.481792717086834771e-02
4.481792717086834771e-02
4.481792717086834771e-02
4.481792717086834771e-02
4.481792717086834771e-02
4.481792717086834771e-02
4.481792717086834771e-02
4.481792717086834771e-02
4.481792717086834771e-02
4.481792717086834771e-02
4.481792717086834771e-02
4.481792717086834771e-02
4.481792717086834771e-02
4.481792717086834771e-02
4.481792717086834771e-02
4.481792717086834771e-02
4.481792717086834771e-02
4.481792717086834771e-02
4.481792717086834771e-02
4.481792717086834771e-02
4.481792717086834771e-02
4.481792717086834771e-02
4.481792717086834771e-02
4.481792717086834771e-02
2.605042016806722871e-01
2.633053221288515489e-01
2.745098039215686514e-01
4.761904761904761640e-01
7.170868347338935633e-01
7.226890756302520868e-01
7.226890756302520868e-01
4.929971988795518456e-01
4.929971988795518456e-01
4.929971988795518456e-01
4.929971988795518456e-01
4.929971988795518456e-01
4.957983193277311074e-01
5.014005602240896309e-01
5.098039215686274161e-01
5.042016806722688926e-01
5.014005602240896309e-01
4.929971988795518456e-01
4.985994397759103691e-01
5.014005602240896309e-01
5.042016806722688926e-01
5.070028011204481544e-01
5.014005602240896309e-01
4.957983193277311074e-01
4.929971988795518456e-01
4.985994397759103691e-01
5.042016806722688926e-01
5.070028011204481544e-01
5.042016806722688926e-01
5.014005602240896309e-01
4.929971988795518456e-01
4.985994397759103691e-01
4.985994397759103691e-01
4.985994397759103691e-01
4.957983193277311074e-01
4.985994397759103691e-01
5.098039215686274161e-01
5.126050420168066779e-01
5.182072829131653124e-01
5.182072829131653124e-01
5.182072829131653124e-01
5.182072829131653124e-01
5.182072829131653124e-01
5.210084033613445742e-01
5.210084033613445742e-01
5.210084033613445742e-01
5.210084033613445742e-01
5.210084033613445742e-01
5.154061624649859397e-01
5.098039215686274161e-01
5.070028011204481544e-01
4.985994397759103691e-01
4.929971988795518456e-01
4.929971988795518456e-01
4.985994397759103691e-01
4.929971988795518456e-01
4.845938375350140048e-01
4.705882352941176405e-01
4.761904761904761640e-01
4.705882352941176405e-01
4.649859943977591170e-01
4.593837535014005380e-01
4.677871148459383788e-01
4.677871148459383788e-01
4.677871148459383788e-01
4.677871148459383788e-01
4.761904761904761640e-01
4.817927170868347431e-01
4.901960784313725283e-01
4.957983193277311074e-01
5.042016806722688926e-01
5.126050420168066779e-01
5.126050420168066779e-01
5.126050420168066779e-01
5.154061624649859397e-01
5.154061624649859397e-01
5.154061624649859397e-01
5.154061624649859397e-01
5.182072829131653124e-01
5.182072829131653124e-01
5.238095238095238360e-01
5.238095238095238360e-01
5.238095238095238360e-01
5.294117647058823595e-01
5.322128851540616212e-01
5.322128851540616212e-01
5.350140056022408830e-01
5.378151260504201447e-01
5.098039215686274161e-01
4.397759103641456502e-01
3.529411764705882582e-01
2.268907563025210072e-01
1.064425770308123215e-01
5.042016806722689204e-02
1.764705882352941291e-01
2.745098039215686514e-01
3.893557422969187720e-01
4.705882352941176405e-01
5.154061624649859397e-01
5.070028011204481544e-01
4.985994397759103691e-01
4.873949579831932666e-01
4.901960784313725283e-01
4.929971988795518456e-01
4.929971988795518456e-01
4.929971988795518456e-01
4.901960784313725283e-01
4.901960784313725283e-01
4.845938375350140048e-01
4.873949579831932666e-01
4.845938375350140048e-01
4.817927170868347431e-01
4.845938375350140048e-01
4.845938375350140048e-01
4.873949579831932666e-01
4.817927170868347431e-01
4.789915966386554813e-01
4.817927170868347431e-01
4.789915966386554813e-01
4.761904761904761640e-01
4.733893557422969023e-01
4.705882352941176405e-01
4.705882352941176405e-01
4.677871148459383788e-01
4.677871148459383788e-01
4.649859943977591170e-01
4.593837535014005380e-01
4.509803921568627527e-01
4.425770308123249119e-01
4.341736694677871267e-01
4.257703081232492859e-01
4.229691876750700241e-01
4.201680672268907624e-01
4.145658263305322389e-01
4.005602240896358746e-01
3.865546218487395103e-01
3.781512605042016695e-01
3.809523809523809312e-01
3.837535014005602485e-01
3.781512605042016695e-01
3.725490196078431460e-01
3.669467787114845669e-01
3.669467787114845669e-01
3.697478991596638842e-01
3.837535014005602485e-01
3.921568627450980338e-01
4.005602240896358746e-01
4.257703081232492859e-01
4.425770308123249119e-01
4.537815126050420145e-01
4.621848739495798553e-01
4.761904761904761640e-01
4.761904761904761640e-01
4.817927170868347431e-01
4.845938375350140048e-01
4.873949579831932666e-01
4.929971988795518456e-01
4.957983193277311074e-01
4.957983193277311074e-01
4.901960784313725283e-01
5.042016806722688926e-01
5.070028011204481544e-01
5.182072829131653124e-01
5.098039215686274161e-01
5.070028011204481544e-01
5.070028011204481544e-01
5.042016806722688926e-01
5.070028011204481544e-01
5.098039215686274161e-01
5.098039215686274161e-01
5.098039215686274161e-01
5.098039215686274161e-01
5.098039215686274161e-01
5.070028011204481544e-01
5.126050420168066779e-01
5.154061624649859397e-01
5.182072829131653124e-01
5.182072829131653124e-01
5.182072829131653124e-01
5.210084033613445742e-01
5.154061624649859397e-01
5.098039215686274161e-01
5.126050420168066779e-01
5.154061624649859397e-01
5.154061624649859397e-01
5.182072829131653124e-01
5.210084033613445742e-01
5.126050420168066779e-01
5.098039215686274161e-01
4.985994397759103691e-01
4.985994397759103691e-01
4.985994397759103691e-01
4.957983193277311074e-01
4.957983193277311074e-01
4.957983193277311074e-01
4.957983193277311074e-01
4.929971988795518456e-01
4.985994397759103691e-01
5.126050420168066779e-01
5.182072829131653124e-01
5.266106442577030977e-01
5.322128851540616212e-01
5.294117647058823595e-01
5.238095238095238360e-01
5.238095238095238360e-01
5.238095238095238360e-01
5.238095238095238360e-01
5.182072829131653124e-01
5.182072829131653124e-01
5.126050420168066779e-01
5.126050420168066779e-01
5.126050420168066779e-01
5.126050420168066779e-01
5.126050420168066779e-01
5.098039215686274161e-01
5.042016806722688926e-01
4.985994397759103691e-01
4.957983193277311074e-01
4.985994397759103691e-01
4.957983193277311074e-01
4.929971988795518456e-01
4.873949579831932666e-01
4.901960784313725283e-01
4.901960784313725283e-01
4.901960784313725283e-01
4.817927170868347431e-01
4.789915966386554813e-01
4.705882352941176405e-01
4.761904761904761640e-01
4.873949579831932666e-01
4.957983193277311074e-01
4.985994397759103691e-01
5.126050420168066779e-01
5.126050420168066779e-01
5.126050420168066779e-01
5.126050420168066779e-01
5.126050420168066779e-01
5.126050420168066779e-01
5.098039215686274161e-01
5.098039215686274161e-01
5.126050420168066779e-01
5.098039215686274161e-01
5.154061624649859397e-01
5.182072829131653124e-01
5.238095238095238360e-01
5.238095238095238360e-01
5.238095238095238360e-01
5.266106442577030977e-01
5.266106442577030977e-01
5.378151260504201447e-01
5.434173669467786683e-01
4.985994397759103691e-01
4.061624649859943981e-01
2.913165266106442775e-01
1.680672268907563160e-01
4.201680672268907901e-02
9.243697478991597105e-02
2.156862745098039325e-01
3.389355742296918939e-01
4.397759103641456502e-01
5.070028011204481544e-01
5.126050420168066779e-01
5.098039215686274161e-01
5.014005602240896309e-01
4.901960784313725283e-01
4.873949579831932666e-01
4.929971988795518456e-01
4.985994397759103691e-01
5.042016806722688926e-01
5.014005602240896309e-01
5.014005602240896309e-01
5.014005602240896309e-01
5.042016806722688926e-01
5.042016806722688926e-01
4.985994397759103691e-01
4.957983193277311074e-01
4.929971988795518456e-01
4.901960784313725283e-01
4.929971988795518456e-01
4.929971988795518456e-01
4.929971988795518456e-01
4.901960784313725283e-01
4.901960784313725283e-01
4.873949579831932666e-01
4.789915966386554813e-01
4.733893557422969023e-01
4.649859943977591170e-01
4.621848739495798553e-01
4.621848739495798553e-01
4.593837535014005380e-01
4.537815126050420145e-01
4.425770308123249119e-01
4.369747899159663884e-01
4.369747899159663884e-01
4.285714285714285476e-01
4.229691876750700241e-01
4.145658263305322389e-01
4.089635854341736598e-01
4.005602240896358746e-01
3.893557422969187720e-01
3.837535014005602485e-01
3.809523809523809312e-01
3.725490196078431460e-01
3.669467787114845669e-01
3.697478991596638842e-01
3.753501400560224077e-01
3.865546218487395103e-01
3.893557422969187720e-01
4.005602240896358746e-01
4.061624649859943981e-01
4.201680672268907624e-01
4.257703081232492859e-01
4.481792717086834910e-01
4.509803921568627527e-01
4.733893557422969023e-01
4.873949579831932666e-01
4.929971988795518456e-01
5.042016806722688926e-01
5.070028011204481544e-01
5.070028011204481544e-01
5.014005602240896309e-01
4.985994397759103691e-01
5.042016806722688926e-01
5.042016806722688926e-01
5.098039215686274161e-01
5.098039215686274161e-01
5.098039215686274161e-01
5.070028011204481544e-01
5.042016806722688926e-01
5.042016806722688926e-01
5.042016806722688926e-01
5.070028011204481544e-01
5.070028011204481544e-01
5.070028011204481544e-01
5.070028011204481544e-01
5.098039215686274161e-01
5.154061624649859397e-01
5.154061624649859397e-01
5.154061624649859397e-01
5.154061624649859397e-01
5.154061624649859397e-01
5.154061624649859397e-01
5.154061624649859397e-01
5.126050420168066779e-01
5.070028011204481544e-01
5.070028011204481544e-01
5.070028011204481544e-01
5.070028011204481544e-01
5.098039215686274161e-01
5.098039215686274161e-01
5.070028011204481544e-01
5.070028011204481544e-01
5.098039215686274161e-01
5.098039215686274161e-01
5.098039215686274161e-01
5.112044817927170470e-01
5.126050420168066779e-01
5.126050420168066779e-01
5.126050420168066779e-01
5.126050420168066779e-01
5.126050420168066779e-01
5.154061624649859397e-01
5.154061624649859397e-01
5.182072829131653124e-01
5.210084033613445742e-01
5.210084033613445742e-01
5.210084033613445742e-01
5.154061624649859397e-01
5.126050420168066779e-01
5.070028011204481544e-01
5.098039215686274161e-01
5.098039215686274161e-01
5.070028011204481544e-01
5.042016806722688926e-01
5.042016806722688926e-01
4.929971988795518456e-01
4.901960784313725283e-01
4.817927170868347431e-01
4.817927170868347431e-01
4.817927170868347431e-01
4.789915966386554813e-01
4.733893557422969023e-01
4.705882352941176405e-01
4.705882352941176405e-01
4.705882352941176405e-01
4.733893557422969023e-01
4.761904761904761640e-01
4.789915966386554813e-01
4.873949579831932666e-01
4.929971988795518456e-01
4.985994397759103691e-01
5.042016806722688926e-01
5.098039215686274161e-01
5.126050420168066779e-01
5.126050420168066779e-01
5.140056022408963088e-01
5.154061624649859397e-01
5.154061624649859397e-01
5.182072829131653124e-01
5.210084033613445742e-01
5.210084033613445742e-01
5.210084033613445742e-01
5.210084033613445742e-01
5.238095238095238360e-01
5.238095238095238360e-01
5.238095238095238360e-01
5.238095238095238360e-01
5.294117647058823595e-01
5.350140056022408830e-01
5.434173669467786683e-01
5.434173669467786683e-01
5.182072829131653124e-01
4.593837535014005380e-01
3.641456582633053052e-01
2.296918767507002690e-01
1.064425770308123215e-01
4.761904761904761640e-02
1.792717086834733908e-01
2.969187675070028010e-01
4.145658263305322389e-01
4.985994397759103691e-01
5.322128851540616212e-01
5.322128851540616212e-01
5.182072829131653124e-01
5.098039215686274161e-01
4.929971988795518456e-01
4.873949579831932666e-01
4.817927170868347431e-01
4.845938375350140048e-01
4.845938375350140048e-01
4.873949579831932666e-01
4.873949579831932666e-01
4.873949579831932666e-01
4.873949579831932666e-01
4.901960784313725283e-01
4.873949579831932666e-01
4.873949579831932666e-01
4.845938375350140048e-01
4.817927170868347431e-01
4.761904761904761640e-01
4.677871148459383788e-01
4.649859943977591170e-01
4.677871148459383788e-01
4.761904761904761640e-01
4.761904761904761640e-01
4.733893557422969023e-01
4.677871148459383788e-01
4.649859943977591170e-01
4.677871148459383788e-01
4.593837535014005380e-01
4.565826330532212762e-01
4.425770308123249119e-01
4.397759103641456502e-01
4.313725490196078649e-01
4.229691876750700241e-01
4.117647058823529216e-01
4.061624649859943981e-01
3.837535014005602485e-01
3.753501400560224077e-01
3.753501400560224077e-01
3.781512605042016695e-01
3.753501400560224077e-01
3.697478991596638842e-01
3.669467787114845669e-01
3.669467787114845669e-01
3.697478991596638842e-01
3.753501400560224077e-01
3.809523809523809312e-01
3.865546218487395103e-01
4.061624649859943981e-01
4.117647058823529216e-01
4.313725490196078649e-01
4.425770308123249119e-01
4.621848739495798553e-01
4.733893557422969023e-01
4.845938375350140048e-01
4.873949579831932666e-01
4.929971988795518456e-01
4.957983193277311074e-01
4.985994397759103691e-01
5.042016806722688926e-01
5.098039215686274161e-01
5.154061624649859397e-01
5.154061624649859397e-01
5.182072829131653124e-01
5.126050420168066779e-01
5.098039215686274161e-01
5.070028011204481544e-01
5.070028011204481544e-01
5.070028011204481544e-01
4.873949579831932666e-01
4.873949579831932666e-01
4.873949579831932666e-01
4.873949579831932666e-01
4.873949579831932666e-01
4.873949579831932666e-01
7.619047619047618625e-01
7.507002801120448154e-01
7.450980392156862919e-01
7.226890756302520868e-01
7.338935574229691339e-01
7.338935574229691339e-01
7.338935574229691339e-01
7.366946778711485067e-01
7.114845938375350398e-01
7.114845938375350398e-01
7.142857142857143016e-01
7.338935574229691339e-01
7.422969187675070302e-01
7.507002801120448154e-01
5.070028011204481544e-01
5.042016806722688926e-01
5.098039215686274161e-01
6.778711484593837877e-01
6.834733893557423112e-01
6.862745098039215730e-01
7.030812324929971435e-01
7.170868347338935633e-01
7.310924369747898721e-01
7.394957983193277684e-01
7.619047619047618625e-01
7.703081232492997588e-01
7.759103641456582823e-01
7.675070028011204970e-01
7.563025210084033390e-01
7.394957983193277684e-01
7.198879551820728251e-01
7.114845938375350398e-01
6.946778711484593583e-01
6.862745098039215730e-01
6.750700280112045260e-01
4.929971988795518456e-01
4.901960784313725283e-01
4.929971988795518456e-01
5.042016806722688926e-01
6.750700280112045260e-01
7.226890756302520868e-01
7.226890756302520868e-01
7.198879551820728251e-01
6.750700280112045260e-01
6.750700280112045260e-01
6.722689075630252642e-01
5.910364145658263402e-01
6.722689075630252642e-01
6.750700280112045260e-01
6.834733893557423112e-01
7.198879551820728251e-01
7.114845938375350398e-01
7.142857142857143016e-01
7.142857142857143016e-01
7.703081232492997588e-01
4.733893557422969023e-01
4.481792717086834910e-01
4.481792717086834910e-01
4.481792717086834910e-01
4.453781512605042292e-01
4.453781512605042292e-01
4.453781512605042292e-01
4.453781512605042292e-01
4.453781512605042292e-01
4.453781512605042292e-01
4.453781512605042292e-01
4.453781512605042292e-01
4.481792717086834910e-01
4.453781512605042292e-01
4.341736694677871267e-01
4.313725490196078649e-01
4.425770308123249119e-01
4.901960784313725283e-01
5.602240896358543498e-01
6.386554621848739011e-01
7.226890756302520868e-01
7.619047619047618625e-01
6.946778711484593583e-01
6.134453781512605453e-01
5.238095238095238360e-01
4.593837535014005380e-01
4.201680672268907624e-01
4.145658263305322389e-01
4.313725490196078649e-01
4.397759103641456502e-01
4.425770308123249119e-01
4.425770308123249119e-01
4.369747899159663884e-01
4.369747899159663884e-01
4.397759103641456502e-01
4.453781512605042292e-01
4.453781512605042292e-01
4.481792717086834910e-01
4.481792717086834910e-01
4.509803921568627527e-01
4.509803921568627527e-01
4.509803921568627527e-01
4.537815126050420145e-01
4.481792717086834910e-01
4.453781512605042292e-01
4.425770308123249119e-01
4.425770308123249119e-01
4.453781512605042292e-01
4.481792717086834910e-01
4.509803921568627527e-01
4.537815126050420145e-01
4.593837535014005380e-01
4.593837535014005380e-01
4.593837535014005380e-01
4.593837535014005380e-01
4.649859943977591170e-01
4.649859943977591170e-01
4.705882352941176405e-01
4.761904761904761640e-01
4.789915966386554813e-01
4.817927170868347431e-01
4.845938375350140048e-01
4.873949579831932666e-01
4.957983193277311074e-01
5.014005602240896309e-01
5.098039215686274161e-01
5.154061624649859397e-01
5.210084033613445742e-01
5.210084033613445742e-01
5.238095238095238360e-01
5.238095238095238360e-01
5.182072829131653124e-01
5.070028011204481544e-01
4.985994397759103691e-01
4.901960784313725283e-01
4.789915966386554813e-01
4.705882352941176405e-01
4.593837535014005380e-01
4.397759103641456502e-01
4.341736694677871267e-01
4.229691876750700241e-01
4.201680672268907624e-01
4.173669467787115006e-01
4.145658263305322389e-01
4.117647058823529216e-01
4.089635854341736598e-01
3.977591036414565573e-01
3.977591036414565573e-01
3.977591036414565573e-01
3.977591036414565573e-01
3.977591036414565573e-01
3.921568627450980338e-01
3.949579831932772955e-01
3.949579831932772955e-01
3.977591036414565573e-01
3.977591036414565573e-01
3.949579831932772955e-01
3.921568627450980338e-01
3.921568627450980338e-01
3.921568627450980338e-01
3.921568627450980338e-01
3.893557422969187720e-01
3.837535014005602485e-01
3.809523809523809312e-01
3.809523809523809312e-01
3.809523809523809312e-01
3.809523809523809312e-01
3.837535014005602485e-01
3.837535014005602485e-01
3.837535014005602485e-01
3.837535014005602485e-01
3.809523809523809312e-01
3.781512605042016695e-01
3.837535014005602485e-01
3.837535014005602485e-01
3.865546218487395103e-01
3.865546218487395103e-01
3.809523809523809312e-01
3.809523809523809312e-01
3.795518207282913004e-01
3.781512605042016695e-01
3.781512605042016695e-01
3.781512605042016695e-01
3.781512605042016695e-01
3.781512605042016695e-01
3.781512605042016695e-01
3.781512605042016695e-01
3.781512605042016695e-01
3.725490196078431460e-01
3.725490196078431460e-01
3.669467787114845669e-01
3.697478991596638842e-01
3.725490196078431460e-01
3.725490196078431460e-01
3.753501400560224077e-01
3.725490196078431460e-01
3.725490196078431460e-01
3.781512605042016695e-01
3.809523809523809312e-01
3.809523809523809312e-01
3.865546218487395103e-01
3.921568627450980338e-01
3.921568627450980338e-01
3.949579831932772955e-01
3.949579831932772955e-01
4.033613445378151363e-01
4.061624649859943981e-01
4.061624649859943981e-01
4.005602240896358746e-01
3.949579831932772955e-01
3.893557422969187720e-01
3.865546218487395103e-01
3.753501400560224077e-01
3.697478991596638842e-01
3.641456582633053052e-01
3.585434173669467817e-01
3.585434173669467817e-01
3.585434173669467817e-01
3.613445378151260434e-01
3.613445378151260434e-01
3.613445378151260434e-01
3.585434173669467817e-01
3.585434173669467817e-01
3.557422969187675199e-01
3.585434173669467817e-01
3.585434173669467817e-01
3.613445378151260434e-01
3.641456582633053052e-01
3.641456582633053052e-01
3.557422969187675199e-01
3.445378151260504174e-01
3.305322128851540531e-01
3.445378151260504174e-01
3.893557422969187720e-01
4.509803921568627527e-01
5.378151260504201447e-01
6.218487394957983305e-01
6.750700280112045260e-01
6.190476190476190688e-01
5.574229691876750881e-01
4.509803921568627527e-01
3.865546218487395103e-01
3.473389355742296791e-01
3.361344537815126321e-01
3.501400560224089409e-01
3.613445378151260434e-01
3.697478991596638842e-01
3.725490196078431460e-01
3.697478991596638842e-01
3.641456582633053052e-01
3.697478991596638842e-01
3.641456582633053052e-01
3.613445378151260434e-01
3.669467787114845669e-01
3.781512605042016695e-01
3.781512605042016695e-01
3.697478991596638842e-01
3.725490196078431460e-01
3.739495798319327768e-01
3.753501400560224077e-01
3.697478991596638842e-01
3.669467787114845669e-01
3.585434173669467817e-01
3.613445378151260434e-01
3.641456582633053052e-01
3.669467787114845669e-01
3.753501400560224077e-01
3.809523809523809312e-01
3.921568627450980338e-01
3.977591036414565573e-01
4.005602240896358746e-01
4.005602240896358746e-01
4.033613445378151363e-01
4.033613445378151363e-01
4.089635854341736598e-01
4.089635854341736598e-01
4.117647058823529216e-01
4.173669467787115006e-01
4.285714285714285476e-01
4.397759103641456502e-01
4.453781512605042292e-01
4.481792717086834910e-01
4.593837535014005380e-01
4.621848739495798553e-01
4.649859943977591170e-01
4.649859943977591170e-01
4.649859943977591170e-01
4.677871148459383788e-01
4.677871148459383788e-01
4.565826330532212762e-01
4.481792717086834910e-01
4.397759103641456502e-01
4.229691876750700241e-01
4.061624649859943981e-01
3.949579831932772955e-01
3.837535014005602485e-01
3.753501400560224077e-01
3.725490196078431460e-01
3.669467787114845669e-01
3.585434173669467817e-01
3.557422969187675199e-01
3.529411764705882582e-01
3.557422969187675199e-01
3.585434173669467817e-01
3.585434173669467817e-01
3.529411764705882582e-01
3.501400560224089409e-01
3.445378151260504174e-01
3.417366946778711556e-01
3.417366946778711556e-01
3.417366946778711556e-01
3.417366946778711556e-01
3.445378151260504174e-01
3.445378151260504174e-01
3.445378151260504174e-01
3.445378151260504174e-01
3.445378151260504174e-01
3.445378151260504174e-01
3.417366946778711556e-01
3.389355742296918939e-01
3.389355742296918939e-01
3.333333333333333148e-01
3.361344537815126321e-01
3.361344537815126321e-01
3.389355742296918939e-01
3.389355742296918939e-01
3.361344537815126321e-01
3.361344537815126321e-01
3.333333333333333148e-01
3.361344537815126321e-01
3.361344537815126321e-01
3.417366946778711556e-01
3.417366946778711556e-01
3.417366946778711556e-01
3.417366946778711556e-01
3.417366946778711556e-01
3.389355742296918939e-01
3.361344537815126321e-01
3.305322128851540531e-01
3.305322128851540531e-01
3.305322128851540531e-01
3.305322128851540531e-01
3.305322128851540531e-01
3.333333333333333148e-01
3.361344537815126321e-01
3.361344537815126321e-01
3.333333333333333148e-01
3.333333333333333148e-01
3.333333333333333148e-01
3.361344537815126321e-01
3.361344537815126321e-01
3.361344537815126321e-01
3.361344537815126321e-01
3.361344537815126321e-01
3.389355742296918939e-01
3.445378151260504174e-01
3.501400560224089409e-01
3.557422969187675199e-01
3.641456582633053052e-01
3.697478991596638842e-01
3.697478991596638842e-01
3.753501400560224077e-01
3.781512605042016695e-01
3.809523809523809312e-01
3.781512605042016695e-01
3.753501400560224077e-01
3.725490196078431460e-01
3.725490196078431460e-01
3.725490196078431460e-01
3.725490196078431460e-01
3.669467787114845669e-01
3.585434173669467817e-01
3.557422969187675199e-01
3.473389355742296791e-01
3.473389355742296791e-01
3.445378151260504174e-01
3.445378151260504174e-01
3.389355742296918939e-01
3.361344537815126321e-01
3.361344537815126321e-01
3.361344537815126321e-01
3.417366946778711556e-01
3.445378151260504174e-01
3.445378151260504174e-01
3.445378151260504174e-01
3.361344537815126321e-01
3.305322128851540531e-01
3.249299719887955296e-01
3.193277310924369505e-01
3.165266106442576888e-01
3.165266106442576888e-01
3.109243697478991653e-01
3.249299719887955296e-01
3.585434173669467817e-01
4.173669467787115006e-01
4.985994397759103691e-01
5.882352941176470784e-01
6.694677871148458914e-01
6.386554621848739011e-01
5.574229691876750881e-01
4.677871148459383788e-01
3.865546218487395103e-01
3.361344537815126321e-01
3.249299719887955296e-01
3.305322128851540531e-01
3.445378151260504174e-01
3.529411764705882582e-01
3.585434173669467817e-01
3.557422969187675199e-01
3.529411764705882582e-01
3.501400560224089409e-01
3.501400560224089409e-01
3.557422969187675199e-01
3.585434173669467817e-01
3.585434173669467817e-01
3.585434173669467817e-01
3.529411764705882582e-01
3.501400560224089409e-01
3.473389355742296791e-01
3.529411764705882582e-01
3.557422969187675199e-01
3.613445378151260434e-01
3.613445378151260434e-01
3.669467787114845669e-01
3.697478991596638842e-01
3.781512605042016695e-01
3.753501400560224077e-01
3.781512605042016695e-01
3.837535014005602485e-01
3.949579831932772955e-01
3.977591036414565573e-01
3.977591036414565573e-01
3.977591036414565573e-01
4.005602240896358746e-01
4.033613445378151363e-01
4.089635854341736598e-01
4.117647058823529216e-01
4.201680672268907624e-01
4.313725490196078649e-01
4.397759103641456502e-01
4.453781512605042292e-01
4.537815126050420145e-01
4.593837535014005380e-01
4.677871148459383788e-01
4.733893557422969023e-01
4.677871148459383788e-01
4.621848739495798553e-01
4.621848739495798553e-01
4.649859943977591170e-01
4.621848739495798553e-01
4.537815126050420145e-01
4.453781512605042292e-01
4.229691876750700241e-01
4.173669467787115006e-01
4.061624649859943981e-01
3.977591036414565573e-01
3.893557422969187720e-01
3.781512605042016695e-01
3.697478991596638842e-01
3.641456582633053052e-01
3.669467787114845669e-01
3.753501400560224077e-01
3.725490196078431460e-01
3.669467787114845669e-01
3.557422969187675199e-01
3.473389355742296791e-01
3.473389355742296791e-01
3.473389355742296791e-01
3.445378151260504174e-01
3.417366946778711556e-01
3.417366946778711556e-01
3.473389355742296791e-01
3.529411764705882582e-01
3.529411764705882582e-01
3.529411764705882582e-01
3.529411764705882582e-01
3.529411764705882582e-01
3.529411764705882582e-01
3.557422969187675199e-01
3.557422969187675199e-01
3.557422969187675199e-01
3.557422969187675199e-01
3.557422969187675199e-01
3.641456582633053052e-01
3.669467787114845669e-01
3.613445378151260434e-01
3.501400560224089409e-01
3.473389355742296791e-01
3.501400560224089409e-01
3.501400560224089409e-01
3.501400560224089409e-01
4.873949579831932666e-01
4.873949579831932666e-01
4.873949579831932666e-01
4.873949579831932666e-01
4.929971988795518456e-01
4.957983193277311074e-01
6.806722689075630495e-01
6.890756302521008347e-01
7.030812324929971435e-01
7.170868347338935633e-01
7.282913165266106104e-01
7.422969187675070302e-01
7.591036414565826007e-01
7.703081232492997588e-01
7.759103641456582823e-01
7.675070028011204970e-01
7.535014005602240772e-01
7.338935574229691339e-01
7.282913165266106104e-01
7.114845938375350398e-01
6.974789915966386200e-01
6.862745098039215730e-01
6.806722689075630495e-01
6.722689075630252642e-01
3.781512605042016695e-01
3.809523809523809312e-01
3.809523809523809312e-01
6.834733893557423112e-01
6.834733893557423112e-01
6.806722689075630495e-01
6.778711484593837877e-01
6.750700280112045260e-01
7.198879551820728251e-01
7.254901960784313486e-01
7.226890756302520868e-01
7.114845938375350398e-01
5.910364145658263402e-01
5.910364145658263402e-01
5.910364145658263402e-01
5.910364145658263402e-01
5.938375350140056019e-01
4.005602240896358746e-01
4.005602240896358746e-01
4.005602240896358746e-01
3.949579831932772955e-01
3.921568627450980338e-01
3.893557422969187720e-01
3.921568627450980338e-01
3.921568627450980338e-01
3.921568627450980338e-01
3.949579831932772955e-01
3.949579831932772955e-01
3.949579831932772955e-01
3.977591036414565573e-01
3.977591036414565573e-01
3.977591036414565573e-01
3.977591036414565573e-01
3.949579831932772955e-01
3.949579831932772955e-01
3.977591036414565573e-01
3.977591036414565573e-01
3.893557422969187720e-01
3.725490196078431460e-01
3.613445378151260434e-01
3.557422969187675199e-01
3.893557422969187720e-01
4.621848739495798553e-01
5.378151260504201447e-01
6.358543417366946393e-01
7.282913165266106104e-01
7.871148459383753293e-01
8.011204481792717491e-01
7.787114845938375440e-01
7.282913165266106104e-01
6.610644257703081061e-01
6.078431372549019107e-01
5.406162464985994065e-01
4.873949579831932666e-01
4.537815126050420145e-01
4.369747899159663884e-01
4.229691876750700241e-01
4.173669467787115006e-01
4.117647058823529216e-01
4.061624649859943981e-01
4.061624649859943981e-01
4.061624649859943981e-01
4.061624649859943981e-01
4.061624649859943981e-01
4.061624649859943981e-01
4.061624649859943981e-01
4.061624649859943981e-01
4.033613445378151363e-01
4.033613445378151363e-01
4.033613445378151363e-01
4.061624649859943981e-01
4.061624649859943981e-01
4.061624649859943981e-01
4.089635854341736598e-01
4.089635854341736598e-01
4.089635854341736598e-01
4.117647058823529216e-01
4.117647058823529216e-01
4.089635854341736598e-01
4.089635854341736598e-01
4.061624649859943981e-01
4.033613445378151363e-01
4.005602240896358746e-01
4.005602240896358746e-01
4.005602240896358746e-01
4.033613445378151363e-01
4.033613445378151363e-01
4.033613445378151363e-01
4.033613445378151363e-01
4.033613445378151363e-01
4.033613445378151363e-01
4.033613445378151363e-01
4.061624649859943981e-01
4.089635854341736598e-01
4.117647058823529216e-01
4.145658263305322389e-01
4.173669467787115006e-01
4.173669467787115006e-01
4.173669467787115006e-01
4.173669467787115006e-01
4.173669467787115006e-01
4.173669467787115006e-01
4.173669467787115006e-01
4.173669467787115006e-01
4.173669467787115006e-01
4.173669467787115006e-01
4.173669467787115006e-01
4.173669467787115006e-01
4.173669467787115006e-01
4.173669467787115006e-01
4.173669467787115006e-01
4.173669467787115006e-01
4.173669467787115006e-01
4.173669467787115006e-01
4.173669467787115006e-01
4.173669467787115006e-01
4.173669467787115006e-01
4.173669467787115006e-01
4.145658263305322389e-01
4.145658263305322389e-01
4.145658263305322389e-01
4.145658263305322389e-01
4.145658263305322389e-01
4.145658263305322389e-01
4.145658263305322389e-01
4.145658263305322389e-01
4.145658263305322389e-01
4.145658263305322389e-01
4.145658263305322389e-01
4.145658263305322389e-01
4.173669467787115006e-01
4.173669467787115006e-01
4.201680672268907624e-01
4.201680672268907624e-01
4.201680672268907624e-01
4.229691876750700241e-01
4.229691876750700241e-01
4.243697478991596550e-01
4.257703081232492859e-01
4.257703081232492859e-01
4.285714285714285476e-01
4.285714285714285476e-01
4.313725490196078649e-01
4.313725490196078649e-01
4.313725490196078649e-01
4.313725490196078649e-01
4.341736694677871267e-01
4.341736694677871267e-01
4.369747899159663884e-01
4.369747899159663884e-01
4.341736694677871267e-01
4.285714285714285476e-01
4.257703081232492859e-01
4.285714285714285476e-01
4.285714285714285476e-01
4.313725490196078649e-01
4.313725490196078649e-01
4.341736694677871267e-01
4.369747899159663884e-01
4.369747899159663884e-01
4.369747899159663884e-01
4.369747899159663884e-01
4.369747899159663884e-01
4.341736694677871267e-01
4.313725490196078649e-01
4.313725490196078649e-01
4.369747899159663884e-01
4.369747899159663884e-01
4.397759103641456502e-01
4.425770308123249119e-01
4.425770308123249119e-01
4.453781512605042292e-01
4.481792717086834910e-01
4.481792717086834910e-01
4.481792717086834910e-01
4.481792717086834910e-01
4.453781512605042292e-01
4.481792717086834910e-01
4.481792717086834910e-01
4.453781512605042292e-01
4.425770308123249119e-01
4.397759103641456502e-01
4.397759103641456502e-01
4.397759103641456502e-01
4.397759103641456502e-01
4.425770308123249119e-01
4.425770308123249119e-01
4.425770308123249119e-01
4.425770308123249119e-01
4.425770308123249119e-01
4.425770308123249119e-01
4.425770308123249119e-01
4.397759103641456502e-01
4.397759103641456502e-01
4.397759103641456502e-01
4.369747899159663884e-01
4.369747899159663884e-01
4.229691876750700241e-01
4.173669467787115006e-01
4.005602240896358746e-01
4.033613445378151363e-01
4.537815126050420145e-01
5.322128851540616212e-01
6.022408963585433872e-01
6.946778711484593583e-01
7.731092436974790205e-01
8.011204481792717491e-01
7.983193277310924874e-01
7.787114845938375440e-01
7.310924369747898721e-01
6.750700280112045260e-01
6.218487394957983305e-01
5.630252100840336116e-01
5.182072829131653124e-01
4.929971988795518456e-01
4.705882352941176405e-01
4.593837535014005380e-01
4.537815126050420145e-01
4.509803921568627527e-01
4.509803921568627527e-01
4.537815126050420145e-01
4.537815126050420145e-01
4.537815126050420145e-01
4.537815126050420145e-01
4.537815126050420145e-01
4.537815126050420145e-01
4.509803921568627527e-01
4.481792717086834910e-01
4.453781512605042292e-01
4.453781512605042292e-01
4.481792717086834910e-01
4.481792717086834910e-01
4.481792717086834910e-01
4.481792717086834910e-01
4.509803921568627527e-01
4.509803921568627527e-01
4.509803921568627527e-01
4.509803921568627527e-01
4.481792717086834910e-01
4.481792717086834910e-01
4.481792717086834910e-01
4.481792717086834910e-01
4.453781512605042292e-01
4.453781512605042292e-01
4.481792717086834910e-01
4.481792717086834910e-01
4.481792717086834910e-01
4.481792717086834910e-01
4.481792717086834910e-01
4.481792717086834910e-01
4.509803921568627527e-01
4.509803921568627527e-01
4.509803921568627527e-01
4.509803921568627527e-01
4.509803921568627527e-01
4.509803921568627527e-01
4.509803921568627527e-01
4.481792717086834910e-01
4.425770308123249119e-01
4.453781512605042292e-01
4.453781512605042292e-01
4.453781512605042292e-01
4.453781512605042292e-01
4.453781512605042292e-01
4.453781512605042292e-01
4.453781512605042292e-01
4.453781512605042292e-01
4.453781512605042292e-01
4.453781512605042292e-01
4.453781512605042292e-01
4.453781512605042292e-01
4.453781512605042292e-01
4.453781512605042292e-01
4.453781512605042292e-01
4.453781512605042292e-01
4.453781512605042292e-01
4.453781512605042292e-01
4.453781512605042292e-01
4.453781512605042292e-01
4.453781512605042292e-01
4.453781512605042292e-01
4.453781512605042292e-01
4.453781512605042292e-01
4.453781512605042292e-01
4.453781512605042292e-01
4.453781512605042292e-01
4.453781512605042292e-01
4.453781512605042292e-01
4.453781512605042292e-01
4.425770308123249119e-01
4.425770308123249119e-01
4.397759103641456502e-01
4.425770308123249119e-01
4.425770308123249119e-01
4.453781512605042292e-01
4.481792717086834910e-01
4.481792717086834910e-01
4.509803921568627527e-01
4.537815126050420145e-01
4.537815126050420145e-01
4.565826330532212762e-01
4.565826330532212762e-01
4.593837535014005380e-01
4.593837535014005380e-01
4.593837535014005380e-01
4.621848739495798553e-01
4.649859943977591170e-01
4.649859943977591170e-01
4.649859943977591170e-01
4.649859943977591170e-01
4.621848739495798553e-01
4.593837535014005380e-01
4.565826330532212762e-01
4.565826330532212762e-01
4.565826330532212762e-01
4.565826330532212762e-01
4.565826330532212762e-01
4.565826330532212762e-01
4.565826330532212762e-01
4.565826330532212762e-01
4.565826330532212762e-01
4.593837535014005380e-01
4.593837535014005380e-01
4.621848739495798553e-01
4.621848739495798553e-01
4.649859943977591170e-01
4.649859943977591170e-01
4.677871148459383788e-01
4.677871148459383788e-01
4.705882352941176405e-01
4.733893557422969023e-01
4.733893557422969023e-01
4.705882352941176405e-01
4.705882352941176405e-01
4.705882352941176405e-01
4.705882352941176405e-01
4.705882352941176405e-01
4.705882352941176405e-01
4.677871148459383788e-01
4.677871148459383788e-01
4.677871148459383788e-01
4.677871148459383788e-01
4.677871148459383788e-01
4.677871148459383788e-01
4.677871148459383788e-01
4.677871148459383788e-01
4.677871148459383788e-01
4.677871148459383788e-01
4.677871148459383788e-01
4.677871148459383788e-01
4.677871148459383788e-01
4.677871148459383788e-01
4.677871148459383788e-01
4.649859943977591170e-01
4.621848739495798553e-01
4.425770308123249119e-01
4.369747899159663884e-01
4.257703081232492859e-01
4.481792717086834910e-01
5.098039215686274161e-01
5.882352941176470784e-01
6.778711484593837877e-01
7.675070028011204970e-01
8.235294117647058432e-01
8.319327731092437395e-01
8.207282913165265814e-01
7.871148459383753293e-01
7.226890756302520868e-01
6.610644257703081061e-01
6.134453781512605453e-01
5.602240896358543498e-01
5.238095238095238360e-01
5.014005602240896309e-01
4.873949579831932666e-01
4.817927170868347431e-01
4.761904761904761640e-01
4.705882352941176405e-01
4.677871148459383788e-01
4.677871148459383788e-01
4.677871148459383788e-01
4.677871148459383788e-01
4.705882352941176405e-01
4.705882352941176405e-01
4.705882352941176405e-01
4.733893557422969023e-01
4.733893557422969023e-01
4.761904761904761640e-01
4.761904761904761640e-01
4.705882352941176405e-01
4.705882352941176405e-01
4.677871148459383788e-01
4.677871148459383788e-01
4.677871148459383788e-01
4.677871148459383788e-01
4.677871148459383788e-01
4.677871148459383788e-01
4.649859943977591170e-01
4.649859943977591170e-01
4.649859943977591170e-01
4.649859943977591170e-01
4.649859943977591170e-01
4.649859943977591170e-01
4.649859943977591170e-01
4.649859943977591170e-01
4.649859943977591170e-01
4.649859943977591170e-01
4.649859943977591170e-01
4.649859943977591170e-01
4.677871148459383788e-01
4.677871148459383788e-01
4.677871148459383788e-01
4.677871148459383788e-01
4.705882352941176405e-01
4.733893557422969023e-01
4.733893557422969023e-01
4.761904761904761640e-01
4.761904761904761640e-01
4.789915966386554813e-01
4.761904761904761640e-01
4.733893557422969023e-01
4.705882352941176405e-01
4.705882352941176405e-01
4.733893557422969023e-01
4.733893557422969023e-01
4.733893557422969023e-01
4.733893557422969023e-01
4.733893557422969023e-01
4.733893557422969023e-01
4.733893557422969023e-01
4.733893557422969023e-01
4.733893557422969023e-01
4.733893557422969023e-01
4.705882352941176405e-01
4.705882352941176405e-01
4.705882352941176405e-01
4.705882352941176405e-01
4.705882352941176405e-01
4.705882352941176405e-01
4.705882352941176405e-01
4.705882352941176405e-01
4.705882352941176405e-01
4.705882352941176405e-01
4.705882352941176405e-01
4.733893557422969023e-01
4.733893557422969023e-01
4.733893557422969023e-01
4.733893557422969023e-01
4.761904761904761640e-01
4.761904761904761640e-01
4.761904761904761640e-01
4.761904761904761640e-01
4.761904761904761640e-01
4.775910364145658504e-01
4.789915966386554813e-01
4.789915966386554813e-01
4.817927170868347431e-01
4.817927170868347431e-01
4.817927170868347431e-01
4.845938375350140048e-01
4.845938375350140048e-01
4.873949579831932666e-01
4.873949579831932666e-01
4.873949579831932666e-01
4.901960784313725283e-01
4.873949579831932666e-01
4.873949579831932666e-01
4.845938375350140048e-01
4.845938375350140048e-01
4.873949579831932666e-01
4.873949579831932666e-01
4.873949579831932666e-01
4.873949579831932666e-01
4.873949579831932666e-01
4.985994397759103691e-01
6.862745098039215730e-01
6.890756302521008347e-01
7.030812324929971435e-01
7.170868347338935633e-01
7.282913165266106104e-01
7.450980392156862919e-01
7.591036414565826007e-01
7.675070028011204970e-01
7.815126050420168058e-01
7.703081232492997588e-01
7.591036414565826007e-01
7.422969187675070302e-01
7.282913165266106104e-01
7.142857142857143016e-01
6.974789915966386200e-01
6.834733893557423112e-01
6.778711484593837877e-01
6.750700280112045260e-01
5.182072829131653124e-01
6.386554621848739011e-01
7.450980392156862919e-01
7.422969187675070302e-01
7.282913165266106104e-01
7.198879551820728251e-01
7.114845938375350398e-01
7.058823529411765163e-01
6.974789915966386200e-01
6.890756302521008347e-01
6.778711484593837877e-01
7.254901960784313486e-01
7.226890756302520868e-01
7.254901960784313486e-01
7.170868347338935633e-01
6.554621848739495826e-01
6.554621848739495826e-01
6.554621848739495826e-01
5.518207282913165646e-01
5.518207282913165646e-01
5.518207282913165646e-01
5.518207282913165646e-01
5.490196078431373028e-01
5.490196078431373028e-01
5.462184873949579300e-01
5.434173669467786683e-01
5.238095238095238360e-01
4.733893557422969023e-01
3.921568627450980338e-01
2.689075630252100724e-01
1.484593837535014005e-01
8.403361344537815802e-02
2.016806722689075682e-01
4.509803921568627527e-01
6.582633053221288444e-01
8.375350140056022630e-01
9.915966386554622147e-01
9.243697478991597105e-01
8.515406162464985718e-01
7.198879551820728251e-01
6.666666666666666297e-01
6.078431372549019107e-01
5.742296918767506586e-01
5.546218487394958263e-01
5.434173669467786683e-01
5.238095238095238360e-01
5.210084033613445742e-01
5.210084033613445742e-01
5.182072829131653124e-01
5.154061624649859397e-01
5.126050420168066779e-01
5.098039215686274161e-01
5.098039215686274161e-01
5.042016806722688926e-01
5.014005602240896309e-01
4.957983193277311074e-01
4.901960784313725283e-01
4.873949579831932666e-01
4.817927170868347431e-01
4.789915966386554813e-01
4.761904761904761640e-01
4.705882352941176405e-01
4.677871148459383788e-01
4.649859943977591170e-01
4.621848739495798553e-01
4.593837535014005380e-01
4.509803921568627527e-01
4.425770308123249119e-01
4.369747899159663884e-01
4.229691876750700241e-01
4.117647058823529216e-01
4.033613445378151363e-01
3.921568627450980338e-01
3.725490196078431460e-01
3.641456582633053052e-01
3.445378151260504174e-01
3.361344537815126321e-01
3.277310924369747913e-01
3.165266106442576888e-01
3.081232492997199035e-01
3.081232492997199035e-01
3.165266106442576888e-01
3.165266106442576888e-01
3.221288515406162678e-01
3.361344537815126321e-01
3.557422969187675199e-01
3.781512605042016695e-01
4.033613445378151363e-01
4.285714285714285476e-01
4.509803921568627527e-01
4.705882352941176405e-01
4.845938375350140048e-01
4.957983193277311074e-01
5.126050420168066779e-01
5.182072829131653124e-01
5.238095238095238360e-01
5.238095238095238360e-01
5.294117647058823595e-01
5.322128851540616212e-01
5.322128851540616212e-01
5.350140056022408830e-01
5.406162464985994065e-01
5.406162464985994065e-01
5.406162464985994065e-01
5.406162464985994065e-01
5.406162464985994065e-01
5.406162464985994065e-01
5.406162464985994065e-01
5.406162464985994065e-01
5.406162464985994065e-01
5.406162464985994065e-01
5.406162464985994065e-01
5.434173669467786683e-01
5.434173669467786683e-01
5.434173669467786683e-01
5.434173669467786683e-01
5.462184873949579300e-01
5.462184873949579300e-01
5.462184873949579300e-01
5.462184873949579300e-01
5.490196078431373028e-01
5.490196078431373028e-01
5.490196078431373028e-01
5.490196078431373028e-01
5.518207282913165646e-01
5.518207282913165646e-01
5.518207282913165646e-01
5.518207282913165646e-01
5.518207282913165646e-01
5.518207282913165646e-01
5.546218487394958263e-01
5.546218487394958263e-01
5.546218487394958263e-01
5.546218487394958263e-01
5.546218487394958263e-01
5.518207282913165646e-01
5.518207282913165646e-01
5.518207282913165646e-01
5.518207282913165646e-01
5.518207282913165646e-01
5.518207282913165646e-01
5.518207282913165646e-01
5.518207282913165646e-01
5.518207282913165646e-01
5.518207282913165646e-01
5.518207282913165646e-01
5.518207282913165646e-01
5.518207282913165646e-01
5.518207282913165646e-01
5.518207282913165646e-01
5.518207282913165646e-01
5.518207282913165646e-01
5.518207282913165646e-01
5.518207282913165646e-01
5.518207282913165646e-01
5.490196078431373028e-01
5.490196078431373028e-01
5.406162464985994065e-01
5.378151260504201447e-01
5.322128851540616212e-01
5.322128851540616212e-01
5.322128851540616212e-01
5.280112044817927286e-01
5.238095238095238360e-01
5.238095238095238360e-01
5.238095238095238360e-01
5.238095238095238360e-01
5.238095238095238360e-01
5.238095238095238360e-01
5.238095238095238360e-01
5.294117647058823595e-01
5.350140056022408830e-01
5.406162464985994065e-01
5.462184873949579300e-01
5.490196078431373028e-01
5.546218487394958263e-01
5.574229691876750881e-01
5.574229691876750881e-01
5.602240896358543498e-01
5.602240896358543498e-01
5.602240896358543498e-01
5.630252100840336116e-01
5.630252100840336116e-01
5.630252100840336116e-01
5.630252100840336116e-01
5.630252100840336116e-01
5.630252100840336116e-01
5.630252100840336116e-01
5.630252100840336116e-01
5.630252100840336116e-01
5.602240896358543498e-01
5.490196078431373028e-01
5.098039215686274161e-01
4.313725490196078649e-01
3.277310924369747913e-01
2.156862745098039325e-01
1.064425770308123215e-01
1.820728291316526526e-01
3.837535014005602485e-01
6.190476190476190688e-01
7.843137254901960675e-01
1.000000000000000000e+00
9.691876750700280096e-01
8.627450980392157298e-01
7.927170868347338528e-01
6.974789915966386200e-01
6.274509803921568540e-01
5.966386554621848637e-01
5.714285714285713969e-01
5.546218487394958263e-01
5.490196078431373028e-01
5.378151260504201447e-01
5.294117647058823595e-01
5.210084033613445742e-01
5.210084033613445742e-01
5.154061624649859397e-01
5.154061624649859397e-01
5.126050420168066779e-01
5.098039215686274161e-01
5.098039215686274161e-01
5.042016806722688926e-01
5.042016806722688926e-01
4.985994397759103691e-01
4.985994397759103691e-01
4.929971988795518456e-01
4.901960784313725283e-01
4.873949579831932666e-01
4.845938375350140048e-01
4.789915966386554813e-01
4.733893557422969023e-01
4.649859943977591170e-01
4.593837535014005380e-01
4.537815126050420145e-01
4.453781512605042292e-01
4.369747899159663884e-01
4.313725490196078649e-01
4.229691876750700241e-01
4.033613445378151363e-01
3.921568627450980338e-01
3.809523809523809312e-01
3.669467787114845669e-01
3.501400560224089409e-01
3.389355742296918939e-01
3.305322128851540531e-01
3.193277310924369505e-01
3.165266106442576888e-01
3.165266106442576888e-01
3.193277310924369505e-01
3.249299719887955296e-01
3.361344537815126321e-01
3.529411764705882582e-01
3.753501400560224077e-01
3.949579831932772955e-01
4.201680672268907624e-01
4.481792717086834910e-01
4.649859943977591170e-01
4.873949579831932666e-01
5.014005602240896309e-01
5.098039215686274161e-01
5.182072829131653124e-01
5.238095238095238360e-01
5.266106442577030977e-01
5.322128851540616212e-01
5.322128851540616212e-01
5.350140056022408830e-01
5.406162464985994065e-01
5.406162464985994065e-01
5.434173669467786683e-01
5.434173669467786683e-01
5.434173669467786683e-01
5.434173669467786683e-01
5.434173669467786683e-01
5.434173669467786683e-01
5.434173669467786683e-01
5.462184873949579300e-01
5.462184873949579300e-01
5.490196078431373028e-01
5.490196078431373028e-01
5.490196078431373028e-01
5.490196078431373028e-01
5.518207282913165646e-01
5.518207282913165646e-01
5.518207282913165646e-01
5.518207282913165646e-01
5.518207282913165646e-01
5.518207282913165646e-01
5.518207282913165646e-01
5.518207282913165646e-01
5.546218487394958263e-01
5.574229691876750881e-01
5.602240896358543498e-01
5.602240896358543498e-01
5.602240896358543498e-01
5.602240896358543498e-01
5.630252100840336116e-01
5.630252100840336116e-01
5.630252100840336116e-01
5.630252100840336116e-01
5.630252100840336116e-01
5.630252100840336116e-01
5.658263305322128733e-01
5.658263305322128733e-01
5.658263305322128733e-01
5.658263305322128733e-01
5.658263305322128733e-01
5.658263305322128733e-01
5.686274509803921351e-01
5.686274509803921351e-01
5.686274509803921351e-01
5.686274509803921351e-01
5.686274509803921351e-01
5.658263305322128733e-01
5.658263305322128733e-01
5.658263305322128733e-01
5.630252100840336116e-01
5.602240896358543498e-01
5.574229691876750881e-01
5.462184873949579300e-01
5.434173669467786683e-01
5.406162464985994065e-01
5.406162464985994065e-01
5.406162464985994065e-01
5.350140056022408830e-01
5.350140056022408830e-01
5.350140056022408830e-01
5.350140056022408830e-01
5.350140056022408830e-01
5.350140056022408830e-01
5.406162464985994065e-01
5.434173669467786683e-01
5.462184873949579300e-01
5.490196078431373028e-01
5.490196078431373028e-01
5.546218487394958263e-01
5.602240896358543498e-01
5.602240896358543498e-01
5.630252100840336116e-01
5.658263305322128733e-01
5.686274509803921351e-01
5.686274509803921351e-01
5.686274509803921351e-01
5.686274509803921351e-01
5.686274509803921351e-01
5.686274509803921351e-01
5.686274509803921351e-01
5.658263305322128733e-01
5.658263305322128733e-01
5.630252100840336116e-01
5.630252100840336116e-01
5.602240896358543498e-01
5.602240896358543498e-01
5.546218487394958263e-01
5.154061624649859397e-01
4.509803921568627527e-01
3.753501400560224077e-01
1.988795518207282786e-01
1.344537815126050362e-01
1.484593837535014005e-01
3.585434173669467817e-01
5.882352941176470784e-01
7.535014005602240772e-01
9.803921568627450567e-01
9.635854341736694861e-01
8.739495798319327768e-01
8.011204481792717491e-01
7.142857142857143016e-01
6.498599439775910591e-01
6.106442577030812835e-01
5.798319327731092931e-01
5.686274509803921351e-01
5.518207282913165646e-01
5.462184873949579300e-01
5.434173669467786683e-01
5.406162464985994065e-01
5.322128851540616212e-01
5.322128851540616212e-01
5.294117647058823595e-01
5.238095238095238360e-01
5.238095238095238360e-01
5.238095238095238360e-01
5.210084033613445742e-01
5.154061624649859397e-01
5.098039215686274161e-01
5.098039215686274161e-01
5.070028011204481544e-01
5.042016806722688926e-01
5.014005602240896309e-01
4.929971988795518456e-01
4.845938375350140048e-01
4.789915966386554813e-01
4.705882352941176405e-01
4.705882352941176405e-01
4.621848739495798553e-01
4.565826330532212762e-01
4.453781512605042292e-01
4.341736694677871267e-01
4.229691876750700241e-01
4.117647058823529216e-01
3.949579831932772955e-01
3.865546218487395103e-01
3.725490196078431460e-01
3.557422969187675199e-01
3.473389355742296791e-01
3.305322128851540531e-01
3.249299719887955296e-01
3.193277310924369505e-01
3.193277310924369505e-01
3.193277310924369505e-01
3.277310924369747913e-01
3.389355742296918939e-01
3.585434173669467817e-01
3.781512605042016695e-01
4.089635854341736598e-01
