0.000000000000000000e+00
0.000000000000000000e+00
7.747424988804337172e-03
1.549484997760867434e-02
2.324227496641281462e-02
3.098969995521715440e-02
3.873712494402149070e-02
4.648454993282583048e-02
5.423197492163016331e-02
6.197939991043430880e-02
6.972682489923864857e-02
7.747424988804298140e-02
8.522167487684731424e-02
9.296909986565166095e-02
1.007165248544557995e-01
1.084639498432601323e-01
1.162113748320644652e-01
1.239587998208688119e-01
1.317062248096731447e-01
1.394536497984772971e-01
1.472010747872816161e-01
1.549484997760859628e-01
1.626959247648903095e-01
1.704433497536946285e-01
1.781907747424987809e-01
1.859381997313031276e-01
1.936856247201074466e-01
2.014330497089117933e-01
2.091804746977161400e-01
2.169278996865202647e-01
2.246753246753246114e-01
2.324227496641289303e-01
2.401701746529332770e-01
2.479175996417376238e-01
2.556650246305417484e-01
2.634124496193461229e-01
2.711598746081504419e-01
2.789072995969547608e-01
2.866547245857591353e-01
2.944021495745632322e-01
3.021495745633677732e-01
3.098969995521719256e-01
3.176444245409762446e-01
3.253918495297806190e-01
3.331392745185847160e-01
3.408866995073892570e-01
3.486341244961934094e-01
3.563815494849975618e-01
3.641289744738021028e-01
3.718763994626062552e-01
3.796238244514107407e-01
3.873712494402148931e-01
3.951186744290194341e-01
4.028660994178235866e-01
4.106135244066277390e-01
4.183609493954322800e-01
4.261083743842363769e-01
4.338557993730405293e-01
4.416032243618450703e-01
4.493506493506492228e-01
4.570980743394537638e-01
4.648454993282578607e-01
4.725929243170624017e-01
4.803403493058665541e-01
4.880877742946707065e-01
4.958351992834752475e-01
5.035826242722793999e-01
5.113300492610834969e-01
5.190774742498880379e-01
5.268248992386922458e-01
5.345723242274966758e-01
5.423197492163008837e-01
5.500671742051054247e-01
5.578145991939095216e-01
5.655620241827137296e-01
5.733094491715182706e-01
5.810568741603223675e-01
5.888042991491264644e-01
5.965517241379310054e-01
3.275862068965517127e-01
3.241379310344827402e-01
3.206896551724137678e-01
5.517241379310344751e-02
5.517241379310344751e-02
5.517241379310344751e-02
5.517241379310344751e-02
5.517241379310344751e-02
5.517241379310344751e-02
5.517241379310344751e-02
5.517241379310344751e-02
5.517241379310344751e-02
5.517241379310344751e-02
5.517241379310344751e-02
5.517241379310344751e-02
5.517241379310344751e-02
5.517241379310344751e-02
5.517241379310344751e-02
5.517241379310344751e-02
5.517241379310344751e-02
5.517241379310344751e-02
5.517241379310344751e-02
5.517241379310344751e-02
5.517241379310344751e-02
5.517241379310344751e-02
5.517241379310344751e-02
5.517241379310344751e-02
5.517241379310344751e-02
5.517241379310344751e-02
5.517241379310344751e-02
5.517241379310344751e-02
5.517241379310344751e-02
5.517241379310344751e-02
5.517241379310344751e-02
5.517241379310344751e-02
5.517241379310344751e-02
5.517241379310344751e-02
5.517241379310344751e-02
5.517241379310344751e-02
3.206896551724137678e-01
3.241379310344827402e-01
3.379310344827586299e-01
5.965517241379310054e-01
8.931034482758620774e-01
8.931034482758620774e-01
8.862068965517241326e-01
6.068965517241379226e-01
5.724137931034483096e-01
5.103448275862069172e-01
4.448275862068965525e-01
3.965517241379310498e-01
4.310344827586206629e-01
4.931034482758620552e-01
5.689655172413793371e-01
6.103448275862068950e-01
6.551724137931034253e-01
6.551724137931034253e-01
6.517241379310344529e-01
6.413793103448275357e-01
6.379310344827586743e-01
6.275862068965517571e-01
6.206896551724138122e-01
6.206896551724138122e-01
6.206896551724138122e-01
6.206896551724138122e-01
6.241379310344827847e-01
6.241379310344827847e-01
6.241379310344827847e-01
6.241379310344827847e-01
6.241379310344827847e-01
6.241379310344827847e-01
6.206896551724138122e-01
6.172413793103448398e-01
6.137931034482758674e-01
6.103448275862068950e-01
6.068965517241379226e-01
6.068965517241379226e-01
6.034482758620689502e-01
5.999999999999999778e-01
5.965517241379310054e-01
5.827586206896552268e-01
5.793103448275862544e-01
5.724137931034483096e-01
5.655172413793103647e-01
5.620689655172413923e-01
5.517241379310344751e-01
5.517241379310344751e-01
5.344827586206896131e-01
5.241379310344828069e-01
5.068965517241379448e-01
5.034482758620689724e-01
5.000000000000000000e-01
4.827586206896551935e-01
4.758620689655172487e-01
4.620689655172413590e-01
4.689655172413793038e-01
4.758620689655172487e-01
4.793103448275862211e-01
4.827586206896551935e-01
4.931034482758620552e-01
5.103448275862069172e-01
5.241379310344828069e-01
5.620689655172413923e-01
5.724137931034483096e-01
5.862068965517240882e-01
5.931034482758620330e-01
6.034482758620689502e-01
6.103448275862068950e-01
6.206896551724138122e-01
6.241379310344827847e-01
6.275862068965517571e-01
6.241379310344827847e-01
6.241379310344827847e-01
6.206896551724138122e-01
6.241379310344827847e-01
6.241379310344827847e-01
6.275862068965517571e-01
6.275862068965517571e-01
6.241379310344827847e-01
6.275862068965517571e-01
6.310344827586207295e-01
6.448275862068965081e-01
6.413793103448275357e-01
6.344827586206897019e-01
6.241379310344827847e-01
6.241379310344827847e-01
6.241379310344827847e-01
6.241379310344827847e-01
6.275862068965517571e-01
6.344827586206897019e-01
6.379310344827586743e-01
6.413793103448275357e-01
6.413793103448275357e-01
6.379310344827586743e-01
6.310344827586207295e-01
6.206896551724138122e-01
6.068965517241379226e-01
6.034482758620689502e-01
5.999999999999999778e-01
6.068965517241379226e-01
6.137931034482758674e-01
6.103448275862068950e-01
6.103448275862068950e-01
6.103448275862068950e-01
6.103448275862068950e-01
6.103448275862068950e-01
6.103448275862068950e-01
6.068965517241379226e-01
6.034482758620689502e-01
5.999999999999999778e-01
6.034482758620689502e-01
6.068965517241379226e-01
6.034482758620689502e-01
6.034482758620689502e-01
6.172413793103448398e-01
6.241379310344827847e-01
6.379310344827586743e-01
6.310344827586207295e-01
6.293103448275861878e-01
6.275862068965517571e-01
6.206896551724138122e-01
6.068965517241379226e-01
6.068965517241379226e-01
6.068965517241379226e-01
6.068965517241379226e-01
6.068965517241379226e-01
6.068965517241379226e-01
6.068965517241379226e-01
6.068965517241379226e-01
6.068965517241379226e-01
6.068965517241379226e-01
5.999999999999999778e-01
5.999999999999999778e-01
5.931034482758620330e-01
5.862068965517240882e-01
5.862068965517240882e-01
5.827586206896552268e-01
5.827586206896552268e-01
5.655172413793103647e-01
5.620689655172413923e-01
5.655172413793103647e-01
5.965517241379310054e-01
5.999999999999999778e-01
6.103448275862068950e-01
6.068965517241379226e-01
6.103448275862068950e-01
6.172413793103448398e-01
6.275862068965517571e-01
6.275862068965517571e-01
6.344827586206897019e-01
6.344827586206897019e-01
6.413793103448275357e-01
6.413793103448275357e-01
6.413793103448275357e-01
6.413793103448275357e-01
6.344827586206897019e-01
6.344827586206897019e-01
6.379310344827586743e-01
6.402298850574711375e-01
6.425287356321840448e-01
6.448275862068965081e-01
6.448275862068965081e-01
6.448275862068965081e-01
6.517241379310344529e-01
6.586206896551723977e-01
6.344827586206897019e-01
5.999999999999999778e-01
5.448275862068965303e-01
4.758620689655172487e-01
4.172413793103448287e-01
4.379310344827586077e-01
4.862068965517241104e-01
5.724137931034483096e-01
6.034482758620689502e-01
6.551724137931034253e-01
6.586206896551723977e-01
6.448275862068965081e-01
6.413793103448275357e-01
6.344827586206897019e-01
6.241379310344827847e-01
6.241379310344827847e-01
6.344827586206897019e-01
6.379310344827586743e-01
6.413793103448275357e-01
6.413793103448275357e-01
6.344827586206897019e-01
6.310344827586207295e-01
6.310344827586207295e-01
6.275862068965517571e-01
6.275862068965517571e-01
6.172413793103448398e-01
6.137931034482758674e-01
6.068965517241379226e-01
6.034482758620689502e-01
5.999999999999999778e-01
5.999999999999999778e-01
5.999999999999999778e-01
5.965517241379310054e-01
5.896551724137930606e-01
5.862068965517240882e-01
5.793103448275862544e-01
5.724137931034483096e-01
5.724137931034483096e-01
5.655172413793103647e-01
5.586206896551724199e-01
5.517241379310344751e-01
5.413793103448275579e-01
5.344827586206896131e-01
5.206896551724138344e-01
5.068965517241379448e-01
5.000000000000000000e-01
4.931034482758620552e-01
4.896551724137930828e-01
4.827586206896551935e-01
4.793103448275862211e-01
4.758620689655172487e-01
4.758620689655172487e-01
4.862068965517241104e-01
5.000000000000000000e-01
5.241379310344828069e-01
5.379310344827585855e-01
5.551724137931034475e-01
5.689655172413793371e-01
5.862068965517240882e-01
5.999999999999999778e-01
6.034482758620689502e-01
6.068965517241379226e-01
6.068965517241379226e-01
6.034482758620689502e-01
5.999999999999999778e-01
6.103448275862068950e-01
6.137931034482758674e-01
6.241379310344827847e-01
6.206896551724138122e-01
6.206896551724138122e-01
6.206896551724138122e-01
6.224137931034482429e-01
6.241379310344827847e-01
6.241379310344827847e-01
6.241379310344827847e-01
6.241379310344827847e-01
6.241379310344827847e-01
6.241379310344827847e-01
6.241379310344827847e-01
6.241379310344827847e-01
6.172413793103448398e-01
6.241379310344827847e-01
6.241379310344827847e-01
6.344827586206897019e-01
6.310344827586207295e-01
6.275862068965517571e-01
6.241379310344827847e-01
6.241379310344827847e-01
6.206896551724138122e-01
6.206896551724138122e-01
6.206896551724138122e-01
6.206896551724138122e-01
6.172413793103448398e-01
6.137931034482758674e-01
6.068965517241379226e-01
6.034482758620689502e-01
6.103448275862068950e-01
6.137931034482758674e-01
6.241379310344827847e-01
6.103448275862068950e-01
6.103448275862068950e-01
6.137931034482758674e-01
6.206896551724138122e-01
6.206896551724138122e-01
6.206896551724138122e-01
6.241379310344827847e-01
6.241379310344827847e-01
6.241379310344827847e-01
6.241379310344827847e-01
6.241379310344827847e-01
6.241379310344827847e-01
6.241379310344827847e-01
6.275862068965517571e-01
6.275862068965517571e-01
6.310344827586207295e-01
6.310344827586207295e-01
6.310344827586207295e-01
6.310344827586207295e-01
6.310344827586207295e-01
6.310344827586207295e-01
6.310344827586207295e-01
6.310344827586207295e-01
6.344827586206897019e-01
6.344827586206897019e-01
6.344827586206897019e-01
6.344827586206897019e-01
6.344827586206897019e-01
6.344827586206897019e-01
6.344827586206897019e-01
6.344827586206897019e-01
6.310344827586207295e-01
6.206896551724138122e-01
6.137931034482758674e-01
6.137931034482758674e-01
6.172413793103448398e-01
6.172413793103448398e-01
6.068965517241379226e-01
5.999999999999999778e-01
5.999999999999999778e-01
5.999999999999999778e-01
5.999999999999999778e-01
6.068965517241379226e-01
6.137931034482758674e-01
6.103448275862068950e-01
6.068965517241379226e-01
6.172413793103448398e-01
6.241379310344827847e-01
6.310344827586207295e-01
6.344827586206897019e-01
6.379310344827586743e-01
6.379310344827586743e-01
6.379310344827586743e-01
6.413793103448275357e-01
6.413793103448275357e-01
6.448275862068965081e-01
6.448275862068965081e-01
6.413793103448275357e-01
6.413793103448275357e-01
6.344827586206897019e-01
6.344827586206897019e-01
6.344827586206897019e-01
6.344827586206897019e-01
6.379310344827586743e-01
6.413793103448275357e-01
6.551724137931034253e-01
6.413793103448275357e-01
6.034482758620689502e-01
5.586206896551724199e-01
4.793103448275862211e-01
4.413793103448275801e-01
4.275862068965517460e-01
4.862068965517241104e-01
5.517241379310344751e-01
5.931034482758620330e-01
6.413793103448275357e-01
6.482758620689654805e-01
6.655172413793103425e-01
6.689655172413793149e-01
6.551724137931034253e-01
6.413793103448275357e-01
6.344827586206897019e-01
6.310344827586207295e-01
6.310344827586207295e-01
6.275862068965517571e-01
6.241379310344827847e-01
6.206896551724138122e-01
6.206896551724138122e-01
6.137931034482758674e-01
6.137931034482758674e-01
6.103448275862068950e-01
6.172413793103448398e-01
6.172413793103448398e-01
6.241379310344827847e-01
6.206896551724138122e-01
6.206896551724138122e-01
6.172413793103448398e-01
6.172413793103448398e-01
6.137931034482758674e-01
6.137931034482758674e-01
6.034482758620689502e-01
5.965517241379310054e-01
5.896551724137930606e-01
5.793103448275862544e-01
5.724137931034483096e-01
5.724137931034483096e-01
5.655172413793103647e-01
5.551724137931034475e-01
5.448275862068965303e-01
5.310344827586206407e-01
5.137931034482758896e-01
5.068965517241379448e-01
4.965517241379310276e-01
4.931034482758620552e-01
4.896551724137930828e-01
4.862068965517241104e-01
4.896551724137930828e-01
4.862068965517241104e-01
4.896551724137930828e-01
5.068965517241379448e-01
5.275862068965517793e-01
5.448275862068965303e-01
5.620689655172413923e-01
5.793103448275862544e-01
5.896551724137930606e-01
5.999999999999999778e-01
6.103448275862068950e-01
6.137931034482758674e-01
6.206896551724138122e-01
6.206896551724138122e-01
6.241379310344827847e-01
6.275862068965517571e-01
6.310344827586207295e-01
6.310344827586207295e-01
6.275862068965517571e-01
6.241379310344827847e-01
6.241379310344827847e-01
6.241379310344827847e-01
6.241379310344827847e-01
6.206896551724138122e-01
6.172413793103448398e-01
6.241379310344827847e-01
6.379310344827586743e-01
6.413793103448275357e-01
6.413793103448275357e-01
6.379310344827586743e-01
6.379310344827586743e-01
6.379310344827586743e-01
6.344827586206897019e-01
6.310344827586207295e-01
6.275862068965517571e-01
6.241379310344827847e-01
6.241379310344827847e-01
6.275862068965517571e-01
6.275862068965517571e-01
6.310344827586207295e-01
6.310344827586207295e-01
6.275862068965517571e-01
6.241379310344827847e-01
6.275862068965517571e-01
6.275862068965517571e-01
6.344827586206897019e-01
6.379310344827586743e-01
6.379310344827586743e-01
6.379310344827586743e-01
6.344827586206897019e-01
6.275862068965517571e-01
6.241379310344827847e-01
6.275862068965517571e-01
6.379310344827586743e-01
6.379310344827586743e-01
6.379310344827586743e-01
6.344827586206897019e-01
6.344827586206897019e-01
6.379310344827586743e-01
6.344827586206897019e-01
6.344827586206897019e-01
6.344827586206897019e-01
6.310344827586207295e-01
6.310344827586207295e-01
6.310344827586207295e-01
6.310344827586207295e-01
6.310344827586207295e-01
6.344827586206897019e-01
6.344827586206897019e-01
6.344827586206897019e-01
6.344827586206897019e-01
6.344827586206897019e-01
6.344827586206897019e-01
6.310344827586207295e-01
6.310344827586207295e-01
6.344827586206897019e-01
6.344827586206897019e-01
6.344827586206897019e-01
6.310344827586207295e-01
6.310344827586207295e-01
6.379310344827586743e-01
6.448275862068965081e-01
6.482758620689654805e-01
6.448275862068965081e-01
6.448275862068965081e-01
6.413793103448275357e-01
6.413793103448275357e-01
6.344827586206897019e-01
6.344827586206897019e-01
6.310344827586207295e-01
6.275862068965517571e-01
6.275862068965517571e-01
6.344827586206897019e-01
6.448275862068965081e-01
6.413793103448275357e-01
6.344827586206897019e-01
6.310344827586207295e-01
6.275862068965517571e-01
6.275862068965517571e-01
6.275862068965517571e-01
6.241379310344827847e-01
6.172413793103448398e-01
6.068965517241379226e-01
5.999999999999999778e-01
5.999999999999999778e-01
6.068965517241379226e-01
6.068965517241379226e-01
6.103448275862068950e-01
6.103448275862068950e-01
5.999999999999999778e-01
5.999999999999999778e-01
5.999999999999999778e-01
5.999999999999999778e-01
5.999999999999999778e-01
5.999999999999999778e-01
9.379310344827586077e-01
9.206896551724137456e-01
9.172413793103447732e-01
8.896551724137931050e-01
8.896551724137931050e-01
8.862068965517241326e-01
8.862068965517241326e-01
9.068965517241379670e-01
8.896551724137931050e-01
8.896551724137931050e-01
8.931034482758620774e-01
9.068965517241379670e-01
9.137931034482759118e-01
9.241379310344827180e-01
5.689655172413793371e-01
5.620689655172413923e-01
5.655172413793103647e-01
5.689655172413793371e-01
6.620689655172413701e-01
7.241379310344827624e-01
7.965517241379310720e-01
8.965517241379310498e-01
9.413793103448275801e-01
8.241379310344827402e-01
7.793103448275862100e-01
6.758620689655172598e-01
5.862068965517240882e-01
9.413793103448275801e-01
9.241379310344827180e-01
9.000000000000000222e-01
8.862068965517241326e-01
8.758620689655172153e-01
8.551724137931034919e-01
8.448275862068965747e-01
8.344827586206896575e-01
7.034482758620689280e-01
5.724137931034483096e-01
5.724137931034483096e-01
5.758620689655172820e-01
8.310344827586206851e-01
8.896551724137931050e-01
8.931034482758620774e-01
8.862068965517241326e-01
8.275862068965517127e-01
8.275862068965517127e-01
8.275862068965517127e-01
8.275862068965517127e-01
8.344827586206896575e-01
8.344827586206896575e-01
8.413793103448276023e-01
8.896551724137931050e-01
8.724137931034482429e-01
8.793103448275861878e-01
8.689655172413792705e-01
6.241379310344827847e-01
6.275862068965517571e-01
6.275862068965517571e-01
6.275862068965517571e-01
6.344827586206897019e-01
6.379310344827586743e-01
6.551724137931034253e-01
6.724137931034482873e-01
6.862068965517241770e-01
6.931034482758621218e-01
7.034482758620689280e-01
7.068965517241379004e-01
7.103448275862068728e-01
7.206896551724137900e-01
7.206896551724137900e-01
7.068965517241379004e-01
6.931034482758621218e-01
6.793103448275862322e-01
6.620689655172413701e-01
6.482758620689654805e-01
6.344827586206897019e-01
6.241379310344827847e-01
6.103448275862068950e-01
6.034482758620689502e-01
5.999999999999999778e-01
5.931034482758620330e-01
5.931034482758620330e-01
5.862068965517240882e-01
5.862068965517240882e-01
5.827586206896552268e-01
5.827586206896552268e-01
5.793103448275862544e-01
5.793103448275862544e-01
5.793103448275862544e-01
5.793103448275862544e-01
5.758620689655172820e-01
5.724137931034483096e-01
5.724137931034483096e-01
5.724137931034483096e-01
5.758620689655172820e-01
5.724137931034483096e-01
5.724137931034483096e-01
5.741379310344827402e-01
5.758620689655172820e-01
5.758620689655172820e-01
5.758620689655172820e-01
5.793103448275862544e-01
5.793103448275862544e-01
5.827586206896552268e-01
5.827586206896552268e-01
5.862068965517240882e-01
5.862068965517240882e-01
5.862068965517240882e-01
5.896551724137930606e-01
5.896551724137930606e-01
5.931034482758620330e-01
5.931034482758620330e-01
5.896551724137930606e-01
5.862068965517240882e-01
5.827586206896552268e-01
5.827586206896552268e-01
5.862068965517240882e-01
5.862068965517240882e-01
5.862068965517240882e-01
5.827586206896552268e-01
5.862068965517240882e-01
5.862068965517240882e-01
5.862068965517240882e-01
5.862068965517240882e-01
5.862068965517240882e-01
5.793103448275862544e-01
5.724137931034483096e-01
5.724137931034483096e-01
5.689655172413793371e-01
5.689655172413793371e-01
5.724137931034483096e-01
5.724137931034483096e-01
5.724137931034483096e-01
5.724137931034483096e-01
5.724137931034483096e-01
5.724137931034483096e-01
5.724137931034483096e-01
5.724137931034483096e-01
5.724137931034483096e-01
5.724137931034483096e-01
5.724137931034483096e-01
5.724137931034483096e-01
5.724137931034483096e-01
5.655172413793103647e-01
5.655172413793103647e-01
5.689655172413793371e-01
5.689655172413793371e-01
5.689655172413793371e-01
5.724137931034483096e-01
5.724137931034483096e-01
5.758620689655172820e-01
5.793103448275862544e-01
5.793103448275862544e-01
5.793103448275862544e-01
5.793103448275862544e-01
5.793103448275862544e-01
5.793103448275862544e-01
5.793103448275862544e-01
5.827586206896552268e-01
5.793103448275862544e-01
5.689655172413793371e-01
5.689655172413793371e-01
5.689655172413793371e-01
5.689655172413793371e-01
5.689655172413793371e-01
5.689655172413793371e-01
5.689655172413793371e-01
5.724137931034483096e-01
5.724137931034483096e-01
5.689655172413793371e-01
5.689655172413793371e-01
5.689655172413793371e-01
5.689655172413793371e-01
5.689655172413793371e-01
5.689655172413793371e-01
5.706896551724137678e-01
5.724137931034483096e-01
5.724137931034483096e-01
5.724137931034483096e-01
5.724137931034483096e-01
5.724137931034483096e-01
5.793103448275862544e-01
5.862068965517240882e-01
5.965517241379310054e-01
6.068965517241379226e-01
6.068965517241379226e-01
6.137931034482758674e-01
6.206896551724138122e-01
6.206896551724138122e-01
6.206896551724138122e-01
6.206896551724138122e-01
6.103448275862068950e-01
6.034482758620689502e-01
5.931034482758620330e-01
5.896551724137930606e-01
5.827586206896552268e-01
5.827586206896552268e-01
5.793103448275862544e-01
5.793103448275862544e-01
5.793103448275862544e-01
5.758620689655172820e-01
5.689655172413793371e-01
5.620689655172413923e-01
5.620689655172413923e-01
5.586206896551724199e-01
5.586206896551724199e-01
5.551724137931034475e-01
5.551724137931034475e-01
5.586206896551724199e-01
5.620689655172413923e-01
5.655172413793103647e-01
5.655172413793103647e-01
5.620689655172413923e-01
5.655172413793103647e-01
5.724137931034483096e-01
5.724137931034483096e-01
6.034482758620689502e-01
6.586206896551723977e-01
7.206896551724137900e-01
8.413793103448276023e-01
9.206896551724137456e-01
9.551724137931034697e-01
8.275862068965517127e-01
7.413793103448276245e-01
6.310344827586207295e-01
5.620689655172413923e-01
5.517241379310344751e-01
5.517241379310344751e-01
5.586206896551724199e-01
5.724137931034483096e-01
5.724137931034483096e-01
5.689655172413793371e-01
5.689655172413793371e-01
5.724137931034483096e-01
5.724137931034483096e-01
5.724137931034483096e-01
5.724137931034483096e-01
5.758620689655172820e-01
5.793103448275862544e-01
5.827586206896552268e-01
5.827586206896552268e-01
5.827586206896552268e-01
5.862068965517240882e-01
5.862068965517240882e-01
5.862068965517240882e-01
5.862068965517240882e-01
5.896551724137930606e-01
5.896551724137930606e-01
5.896551724137930606e-01
5.896551724137930606e-01
5.862068965517240882e-01
5.931034482758620330e-01
5.965517241379310054e-01
6.034482758620689502e-01
6.137931034482758674e-01
6.241379310344827847e-01
6.310344827586207295e-01
6.344827586206897019e-01
6.413793103448275357e-01
6.655172413793103425e-01
6.724137931034482873e-01
6.758620689655172598e-01
6.896551724137931494e-01
6.999999999999999556e-01
7.034482758620689280e-01
7.137931034482758452e-01
7.103448275862068728e-01
7.068965517241379004e-01
7.034482758620689280e-01
6.965517241379309832e-01
6.862068965517241770e-01
6.724137931034482873e-01
6.551724137931034253e-01
6.344827586206897019e-01
6.241379310344827847e-01
6.137931034482758674e-01
6.034482758620689502e-01
5.931034482758620330e-01
5.896551724137930606e-01
5.827586206896552268e-01
5.793103448275862544e-01
5.827586206896552268e-01
5.793103448275862544e-01
5.758620689655172820e-01
5.758620689655172820e-01
5.793103448275862544e-01
5.793103448275862544e-01
5.793103448275862544e-01
5.793103448275862544e-01
5.793103448275862544e-01
5.793103448275862544e-01
5.793103448275862544e-01
5.827586206896552268e-01
5.793103448275862544e-01
5.793103448275862544e-01
5.724137931034483096e-01
5.724137931034483096e-01
5.758620689655172820e-01
5.758620689655172820e-01
5.724137931034483096e-01
5.724137931034483096e-01
5.724137931034483096e-01
5.724137931034483096e-01
5.758620689655172820e-01
5.724137931034483096e-01
5.724137931034483096e-01
5.793103448275862544e-01
5.793103448275862544e-01
5.827586206896552268e-01
5.827586206896552268e-01
5.827586206896552268e-01
5.827586206896552268e-01
5.793103448275862544e-01
5.793103448275862544e-01
5.793103448275862544e-01
5.793103448275862544e-01
5.758620689655172820e-01
5.758620689655172820e-01
5.758620689655172820e-01
5.758620689655172820e-01
5.758620689655172820e-01
5.758620689655172820e-01
5.724137931034483096e-01
5.724137931034483096e-01
5.724137931034483096e-01
5.724137931034483096e-01
5.689655172413793371e-01
5.689655172413793371e-01
5.689655172413793371e-01
5.689655172413793371e-01
5.689655172413793371e-01
5.689655172413793371e-01
5.689655172413793371e-01
5.706896551724137678e-01
5.724137931034483096e-01
5.724137931034483096e-01
5.758620689655172820e-01
5.724137931034483096e-01
5.620689655172413923e-01
5.620689655172413923e-01
5.655172413793103647e-01
5.655172413793103647e-01
5.655172413793103647e-01
5.724137931034483096e-01
5.724137931034483096e-01
5.724137931034483096e-01
5.758620689655172820e-01
5.724137931034483096e-01
5.724137931034483096e-01
5.689655172413793371e-01
5.689655172413793371e-01
5.724137931034483096e-01
5.724137931034483096e-01
5.724137931034483096e-01
5.724137931034483096e-01
5.724137931034483096e-01
5.689655172413793371e-01
5.689655172413793371e-01
5.689655172413793371e-01
5.689655172413793371e-01
5.689655172413793371e-01
5.689655172413793371e-01
5.724137931034483096e-01
5.724137931034483096e-01
5.724137931034483096e-01
5.724137931034483096e-01
5.724137931034483096e-01
5.758620689655172820e-01
5.793103448275862544e-01
5.724137931034483096e-01
5.689655172413793371e-01
5.620689655172413923e-01
5.620689655172413923e-01
5.655172413793103647e-01
5.689655172413793371e-01
5.724137931034483096e-01
5.793103448275862544e-01
5.793103448275862544e-01
5.793103448275862544e-01
5.827586206896552268e-01
5.827586206896552268e-01
5.862068965517240882e-01
5.896551724137930606e-01
5.931034482758620330e-01
5.965517241379310054e-01
5.999999999999999778e-01
6.068965517241379226e-01
6.172413793103448398e-01
6.172413793103448398e-01
6.103448275862068950e-01
6.068965517241379226e-01
5.999999999999999778e-01
5.862068965517240882e-01
5.793103448275862544e-01
5.724137931034483096e-01
5.724137931034483096e-01
5.724137931034483096e-01
5.655172413793103647e-01
5.620689655172413923e-01
5.620689655172413923e-01
5.551724137931034475e-01
5.517241379310344751e-01
5.517241379310344751e-01
5.586206896551724199e-01
5.551724137931034475e-01
5.517241379310344751e-01
5.482758620689655027e-01
5.482758620689655027e-01
5.448275862068965303e-01
5.448275862068965303e-01
5.448275862068965303e-01
5.448275862068965303e-01
5.448275862068965303e-01
5.448275862068965303e-01
5.586206896551724199e-01
6.103448275862068950e-01
6.827586206896552046e-01
7.793103448275862100e-01
8.793103448275861878e-01
9.275862068965516904e-01
8.379310344827586299e-01
7.413793103448276245e-01
6.379310344827586743e-01
5.517241379310344751e-01
5.275862068965517793e-01
5.344827586206896131e-01
5.379310344827585855e-01
5.379310344827585855e-01
5.379310344827585855e-01
5.379310344827585855e-01
5.379310344827585855e-01
5.413793103448275579e-01
5.413793103448275579e-01
5.448275862068965303e-01
5.482758620689655027e-01
5.517241379310344751e-01
5.517241379310344751e-01
5.551724137931034475e-01
5.551724137931034475e-01
5.586206896551724199e-01
5.586206896551724199e-01
5.586206896551724199e-01
5.586206896551724199e-01
5.586206896551724199e-01
5.620689655172413923e-01
5.620689655172413923e-01
5.655172413793103647e-01
5.655172413793103647e-01
5.655172413793103647e-01
5.689655172413793371e-01
5.724137931034483096e-01
5.758620689655172820e-01
5.793103448275862544e-01
5.896551724137930606e-01
5.965517241379310054e-01
6.068965517241379226e-01
6.137931034482758674e-01
6.206896551724138122e-01
6.310344827586207295e-01
6.413793103448275357e-01
6.517241379310344529e-01
6.620689655172413701e-01
6.689655172413793149e-01
6.793103448275862322e-01
6.827586206896552046e-01
6.862068965517241770e-01
6.793103448275862322e-01
6.724137931034482873e-01
6.620689655172413701e-01
6.379310344827586743e-01
6.310344827586207295e-01
6.206896551724138122e-01
6.034482758620689502e-01
5.896551724137930606e-01
5.827586206896552268e-01
5.655172413793103647e-01
5.586206896551724199e-01
5.551724137931034475e-01
5.482758620689655027e-01
5.413793103448275579e-01
5.379310344827585855e-01
5.379310344827585855e-01
5.448275862068965303e-01
5.448275862068965303e-01
5.413793103448275579e-01
5.379310344827585855e-01
5.344827586206896131e-01
5.999999999999999778e-01
5.999999999999999778e-01
5.999999999999999778e-01
5.999999999999999778e-01
6.068965517241379226e-01
6.103448275862068950e-01
8.379310344827586299e-01
8.482758620689655471e-01
8.655172413793102981e-01
8.827586206896551602e-01
8.965517241379310498e-01
9.137931034482759118e-01
9.344827586206896353e-01
9.448275862068965525e-01
9.517241379310344973e-01
9.448275862068965525e-01
9.379310344827586077e-01
9.172413793103447732e-01
9.000000000000000222e-01
8.793103448275861878e-01
8.620689655172413257e-01
8.448275862068965747e-01
8.344827586206896575e-01
6.862068965517241770e-01
5.379310344827585855e-01
5.379310344827585855e-01
5.413793103448275579e-01
8.448275862068965747e-01
8.448275862068965747e-01
8.344827586206896575e-01
8.344827586206896575e-01
8.310344827586206851e-01
8.862068965517241326e-01
8.931034482758620774e-01
8.931034482758620774e-01
8.793103448275861878e-01
7.586206896551723755e-01
9.586206896551724421e-01
7.586206896551723755e-01
7.586206896551723755e-01
5.586206896551724199e-01
5.517241379310344751e-01
5.517241379310344751e-01
5.551724137931034475e-01
5.551724137931034475e-01
5.551724137931034475e-01
5.551724137931034475e-01
5.551724137931034475e-01
5.482758620689655027e-01
5.448275862068965303e-01
5.379310344827585855e-01
5.379310344827585855e-01
5.379310344827585855e-01
5.379310344827585855e-01
5.379310344827585855e-01
5.379310344827585855e-01
5.379310344827585855e-01
5.379310344827585855e-01
5.379310344827585855e-01
5.379310344827585855e-01
5.379310344827585855e-01
5.413793103448275579e-01
5.413793103448275579e-01
5.413793103448275579e-01
5.448275862068965303e-01
5.448275862068965303e-01
5.448275862068965303e-01
5.448275862068965303e-01
5.482758620689655027e-01
5.482758620689655027e-01
5.482758620689655027e-01
5.448275862068965303e-01
5.413793103448275579e-01
5.413793103448275579e-01
5.413793103448275579e-01
5.413793103448275579e-01
5.413793103448275579e-01
5.448275862068965303e-01
5.448275862068965303e-01
5.448275862068965303e-01
5.448275862068965303e-01
5.448275862068965303e-01
5.465517241379310720e-01
5.482758620689655027e-01
5.482758620689655027e-01
5.482758620689655027e-01
5.482758620689655027e-01
5.482758620689655027e-01
5.482758620689655027e-01
5.448275862068965303e-01
5.413793103448275579e-01
5.379310344827585855e-01
5.344827586206896131e-01
5.275862068965517793e-01
5.275862068965517793e-01
5.310344827586206407e-01
5.413793103448275579e-01
5.517241379310344751e-01
5.517241379310344751e-01
5.517241379310344751e-01
5.517241379310344751e-01
5.517241379310344751e-01
5.517241379310344751e-01
5.551724137931034475e-01
5.551724137931034475e-01
5.551724137931034475e-01
5.551724137931034475e-01
5.551724137931034475e-01
5.517241379310344751e-01
5.517241379310344751e-01
5.517241379310344751e-01
5.517241379310344751e-01
5.517241379310344751e-01
5.517241379310344751e-01
5.517241379310344751e-01
5.551724137931034475e-01
5.551724137931034475e-01
5.551724137931034475e-01
5.551724137931034475e-01
5.551724137931034475e-01
5.517241379310344751e-01
5.482758620689655027e-01
5.448275862068965303e-01
5.275862068965517793e-01
5.034482758620689724e-01
4.931034482758620552e-01
5.620689655172413923e-01
6.655172413793103425e-01
7.724137931034482651e-01
8.965517241379310498e-01
9.862068965517241104e-01
9.482758620689655249e-01
8.758620689655172153e-01
7.896551724137931272e-01
7.103448275862068728e-01
6.620689655172413701e-01
6.172413793103448398e-01
5.931034482758620330e-01
5.758620689655172820e-01
5.655172413793103647e-01
5.586206896551724199e-01
5.517241379310344751e-01
5.517241379310344751e-01
5.517241379310344751e-01
5.517241379310344751e-01
5.551724137931034475e-01
5.551724137931034475e-01
5.551724137931034475e-01
5.586206896551724199e-01
5.586206896551724199e-01
5.586206896551724199e-01
5.620689655172413923e-01
5.620689655172413923e-01
5.620689655172413923e-01
5.655172413793103647e-01
5.655172413793103647e-01
5.689655172413793371e-01
5.689655172413793371e-01
5.724137931034483096e-01
5.724137931034483096e-01
5.758620689655172820e-01
5.758620689655172820e-01
5.793103448275862544e-01
5.793103448275862544e-01
5.827586206896552268e-01
5.862068965517240882e-01
5.931034482758620330e-01
5.999999999999999778e-01
6.103448275862068950e-01
6.172413793103448398e-01
6.275862068965517571e-01
6.379310344827586743e-01
6.482758620689654805e-01
6.551724137931034253e-01
6.551724137931034253e-01
6.551724137931034253e-01
6.551724137931034253e-01
6.517241379310344529e-01
6.413793103448275357e-01
6.344827586206897019e-01
6.241379310344827847e-01
6.103448275862068950e-01
5.999999999999999778e-01
5.896551724137930606e-01
5.827586206896552268e-01
5.724137931034483096e-01
5.655172413793103647e-01
5.586206896551724199e-01
5.586206896551724199e-01
5.517241379310344751e-01
5.517241379310344751e-01
5.482758620689655027e-01
5.482758620689655027e-01
5.482758620689655027e-01
5.482758620689655027e-01
5.517241379310344751e-01
5.517241379310344751e-01
5.517241379310344751e-01
5.517241379310344751e-01
5.517241379310344751e-01
5.482758620689655027e-01
5.482758620689655027e-01
5.482758620689655027e-01
5.482758620689655027e-01
5.482758620689655027e-01
5.482758620689655027e-01
5.482758620689655027e-01
5.482758620689655027e-01
5.482758620689655027e-01
5.482758620689655027e-01
5.482758620689655027e-01
5.482758620689655027e-01
5.482758620689655027e-01
5.482758620689655027e-01
5.482758620689655027e-01
5.517241379310344751e-01
5.517241379310344751e-01
5.517241379310344751e-01
5.517241379310344751e-01
5.517241379310344751e-01
5.517241379310344751e-01
5.517241379310344751e-01
5.517241379310344751e-01
5.551724137931034475e-01
5.551724137931034475e-01
5.551724137931034475e-01
5.551724137931034475e-01
5.551724137931034475e-01
5.551724137931034475e-01
5.551724137931034475e-01
5.551724137931034475e-01
5.551724137931034475e-01
5.551724137931034475e-01
5.551724137931034475e-01
5.551724137931034475e-01
5.551724137931034475e-01
5.551724137931034475e-01
5.551724137931034475e-01
5.551724137931034475e-01
5.551724137931034475e-01
5.551724137931034475e-01
5.551724137931034475e-01
5.551724137931034475e-01
5.551724137931034475e-01
5.551724137931034475e-01
5.586206896551724199e-01
5.586206896551724199e-01
5.586206896551724199e-01
5.586206896551724199e-01
5.586206896551724199e-01
5.586206896551724199e-01
5.586206896551724199e-01
5.586206896551724199e-01
5.586206896551724199e-01
5.586206896551724199e-01
5.586206896551724199e-01
5.586206896551724199e-01
5.586206896551724199e-01
5.586206896551724199e-01
5.586206896551724199e-01
5.586206896551724199e-01
5.586206896551724199e-01
5.586206896551724199e-01
5.586206896551724199e-01
5.586206896551724199e-01
5.586206896551724199e-01
5.586206896551724199e-01
5.620689655172413923e-01
5.620689655172413923e-01
5.620689655172413923e-01
5.620689655172413923e-01
5.620689655172413923e-01
5.620689655172413923e-01
5.620689655172413923e-01
5.620689655172413923e-01
5.620689655172413923e-01
5.655172413793103647e-01
5.655172413793103647e-01
5.655172413793103647e-01
5.672413793103447954e-01
5.689655172413793371e-01
5.689655172413793371e-01
5.689655172413793371e-01
5.689655172413793371e-01
5.724137931034483096e-01
5.724137931034483096e-01
5.724137931034483096e-01
5.724137931034483096e-01
5.724137931034483096e-01
5.724137931034483096e-01
5.689655172413793371e-01
5.655172413793103647e-01
5.655172413793103647e-01
5.724137931034483096e-01
5.793103448275862544e-01
5.793103448275862544e-01
5.862068965517240882e-01
5.862068965517240882e-01
5.862068965517240882e-01
5.862068965517240882e-01
5.862068965517240882e-01
5.862068965517240882e-01
5.862068965517240882e-01
5.862068965517240882e-01
5.896551724137930606e-01
5.896551724137930606e-01
5.862068965517240882e-01
5.862068965517240882e-01
5.862068965517240882e-01
5.862068965517240882e-01
5.862068965517240882e-01
5.862068965517240882e-01
5.862068965517240882e-01
5.827586206896552268e-01
5.827586206896552268e-01
5.827586206896552268e-01
5.827586206896552268e-01
5.827586206896552268e-01
5.775862068965517127e-01
5.724137931034483096e-01
5.586206896551724199e-01
5.310344827586206407e-01
5.275862068965517793e-01
6.172413793103448398e-01
7.137931034482758452e-01
8.310344827586206851e-01
9.413793103448275801e-01
1.000000000000000000e+00
9.413793103448275801e-01
8.689655172413792705e-01
7.724137931034482651e-01
7.103448275862068728e-01
6.689655172413793149e-01
6.206896551724138122e-01
5.999999999999999778e-01
5.827586206896552268e-01
5.724137931034483096e-01
5.689655172413793371e-01
5.689655172413793371e-01
5.689655172413793371e-01
5.689655172413793371e-01
5.724137931034483096e-01
5.724137931034483096e-01
5.724137931034483096e-01
5.724137931034483096e-01
5.724137931034483096e-01
5.724137931034483096e-01
5.724137931034483096e-01
5.724137931034483096e-01
5.724137931034483096e-01
5.724137931034483096e-01
5.724137931034483096e-01
5.724137931034483096e-01
5.758620689655172820e-01
5.758620689655172820e-01
5.758620689655172820e-01
5.758620689655172820e-01
5.758620689655172820e-01
5.758620689655172820e-01
5.827586206896552268e-01
5.896551724137930606e-01
5.965517241379310054e-01
6.068965517241379226e-01
6.137931034482758674e-01
6.206896551724138122e-01
6.275862068965517571e-01
6.344827586206897019e-01
6.413793103448275357e-01
6.517241379310344529e-01
6.620689655172413701e-01
6.689655172413793149e-01
6.689655172413793149e-01
6.689655172413793149e-01
6.655172413793103425e-01
6.655172413793103425e-01
6.586206896551723977e-01
6.517241379310344529e-01
6.379310344827586743e-01
6.275862068965517571e-01
6.137931034482758674e-01
6.068965517241379226e-01
5.999999999999999778e-01
5.931034482758620330e-01
5.862068965517240882e-01
5.827586206896552268e-01
5.793103448275862544e-01
5.793103448275862544e-01
5.793103448275862544e-01
5.724137931034483096e-01
5.724137931034483096e-01
5.724137931034483096e-01
5.724137931034483096e-01
5.724137931034483096e-01
5.724137931034483096e-01
5.724137931034483096e-01
5.724137931034483096e-01
5.724137931034483096e-01
5.724137931034483096e-01
5.724137931034483096e-01
5.724137931034483096e-01
5.758620689655172820e-01
5.758620689655172820e-01
5.758620689655172820e-01
5.793103448275862544e-01
5.793103448275862544e-01
5.793103448275862544e-01
5.827586206896552268e-01
5.827586206896552268e-01
5.862068965517240882e-01
5.862068965517240882e-01
5.793103448275862544e-01
5.793103448275862544e-01
5.793103448275862544e-01
5.793103448275862544e-01
5.793103448275862544e-01
5.793103448275862544e-01
5.793103448275862544e-01
5.793103448275862544e-01
5.793103448275862544e-01
5.793103448275862544e-01
5.793103448275862544e-01
5.793103448275862544e-01
5.827586206896552268e-01
5.827586206896552268e-01
5.827586206896552268e-01
5.862068965517240882e-01
5.862068965517240882e-01
5.862068965517240882e-01
5.862068965517240882e-01
5.862068965517240882e-01
5.896551724137930606e-01
5.896551724137930606e-01
5.862068965517240882e-01
5.827586206896552268e-01
5.793103448275862544e-01
5.793103448275862544e-01
5.827586206896552268e-01
5.827586206896552268e-01
5.862068965517240882e-01
5.862068965517240882e-01
5.862068965517240882e-01
5.896551724137930606e-01
5.896551724137930606e-01
5.896551724137930606e-01
5.862068965517240882e-01
5.827586206896552268e-01
5.827586206896552268e-01
5.827586206896552268e-01
5.827586206896552268e-01
5.862068965517240882e-01
5.862068965517240882e-01
5.862068965517240882e-01
5.862068965517240882e-01
5.896551724137930606e-01
5.896551724137930606e-01
5.862068965517240882e-01
5.827586206896552268e-01
5.793103448275862544e-01
5.758620689655172820e-01
5.793103448275862544e-01
5.793103448275862544e-01
5.827586206896552268e-01
5.827586206896552268e-01
5.827586206896552268e-01
5.862068965517240882e-01
5.862068965517240882e-01
5.862068965517240882e-01
5.896551724137930606e-01
5.896551724137930606e-01
5.896551724137930606e-01
5.896551724137930606e-01
5.896551724137930606e-01
5.896551724137930606e-01
5.896551724137930606e-01
5.896551724137930606e-01
5.896551724137930606e-01
5.896551724137930606e-01
5.896551724137930606e-01
5.896551724137930606e-01
5.862068965517240882e-01
5.827586206896552268e-01
5.827586206896552268e-01
5.827586206896552268e-01
5.862068965517240882e-01
5.793103448275862544e-01
5.758620689655172820e-01
5.724137931034483096e-01
5.793103448275862544e-01
5.862068965517240882e-01
5.896551724137930606e-01
5.931034482758620330e-01
5.965517241379310054e-01
5.999999999999999778e-01
5.999999999999999778e-01
5.999999999999999778e-01
5.999999999999999778e-01
5.999999999999999778e-01
6.137931034482758674e-01
8.344827586206896575e-01
8.482758620689655471e-01
8.655172413793102981e-01
8.793103448275861878e-01
8.965517241379310498e-01
9.206896551724137456e-01
9.379310344827586077e-01
9.448275862068965525e-01
9.517241379310344973e-01
9.482758620689655249e-01
9.344827586206896353e-01
9.137931034482759118e-01
9.000000000000000222e-01
8.793103448275861878e-01
8.586206896551724643e-01
8.344827586206896575e-01
6.068965517241379226e-01
5.689655172413793371e-01
4.827586206896551935e-01
4.413793103448275801e-01
3.482758620689654916e-01
2.758620689655172376e-01
2.620689655172414034e-01
3.931034482758620774e-01
5.586206896551724199e-01
6.620689655172413701e-01
8.206896551724137678e-01
8.000000000000000444e-01
7.517241379310344307e-01
8.551724137931034919e-01
8.758620689655172153e-01
8.827586206896551602e-01
8.275862068965517127e-01
6.206896551724138122e-01
7.724137931034482651e-01
7.724137931034482651e-01
6.068965517241379226e-01
6.068965517241379226e-01
6.068965517241379226e-01
6.034482758620689502e-01
6.034482758620689502e-01
5.999999999999999778e-01
5.999999999999999778e-01
5.999999999999999778e-01
5.965517241379310054e-01
5.931034482758620330e-01
5.931034482758620330e-01
5.862068965517240882e-01
5.862068965517240882e-01
5.793103448275862544e-01
5.793103448275862544e-01
5.724137931034483096e-01
5.724137931034483096e-01
5.689655172413793371e-01
5.620689655172413923e-01
5.551724137931034475e-01
5.482758620689655027e-01
5.413793103448275579e-01
5.310344827586206407e-01
5.206896551724138344e-01
5.068965517241379448e-01
4.965517241379310276e-01
4.862068965517241104e-01
4.758620689655172487e-01
4.689655172413793038e-01
4.620689655172413590e-01
4.586206896551723866e-01
4.586206896551723866e-01
4.586206896551723866e-01
4.655172413793103314e-01
4.758620689655172487e-01
4.896551724137930828e-01
5.000000000000000000e-01
5.172413793103448620e-01
5.344827586206896131e-01
5.482758620689655027e-01
5.586206896551724199e-01
5.724137931034483096e-01
5.862068965517240882e-01
5.965517241379310054e-01
6.034482758620689502e-01
6.103448275862068950e-01
6.172413793103448398e-01
6.206896551724138122e-01
6.206896551724138122e-01
6.241379310344827847e-01
6.241379310344827847e-01
6.275862068965517571e-01
6.275862068965517571e-01
6.275862068965517571e-01
6.275862068965517571e-01
6.275862068965517571e-01
6.275862068965517571e-01
6.275862068965517571e-01
6.275862068965517571e-01
6.275862068965517571e-01
6.275862068965517571e-01
6.275862068965517571e-01
6.275862068965517571e-01
6.275862068965517571e-01
6.310344827586207295e-01
6.310344827586207295e-01
6.310344827586207295e-01
6.310344827586207295e-01
6.310344827586207295e-01
6.310344827586207295e-01
6.310344827586207295e-01
6.310344827586207295e-01
6.310344827586207295e-01
6.310344827586207295e-01
6.310344827586207295e-01
6.344827586206897019e-01
6.344827586206897019e-01
6.379310344827586743e-01
6.379310344827586743e-01
6.379310344827586743e-01
6.413793103448275357e-01
6.413793103448275357e-01
6.413793103448275357e-01
6.413793103448275357e-01
6.413793103448275357e-01
6.413793103448275357e-01
6.448275862068965081e-01
6.448275862068965081e-01
6.448275862068965081e-01
6.448275862068965081e-01
6.448275862068965081e-01
6.448275862068965081e-01
6.448275862068965081e-01
6.448275862068965081e-01
6.448275862068965081e-01
6.448275862068965081e-01
6.448275862068965081e-01
6.448275862068965081e-01
6.448275862068965081e-01
6.448275862068965081e-01
6.448275862068965081e-01
6.448275862068965081e-01
6.448275862068965081e-01
6.448275862068965081e-01
6.448275862068965081e-01
6.448275862068965081e-01
6.448275862068965081e-01
6.448275862068965081e-01
6.448275862068965081e-01
6.448275862068965081e-01
6.448275862068965081e-01
6.448275862068965081e-01
6.551724137931034253e-01
6.551724137931034253e-01
6.551724137931034253e-01
6.517241379310344529e-01
6.551724137931034253e-01
6.551724137931034253e-01
6.551724137931034253e-01
6.551724137931034253e-01
6.551724137931034253e-01
6.551724137931034253e-01
6.551724137931034253e-01
6.517241379310344529e-01
6.517241379310344529e-01
6.517241379310344529e-01
6.448275862068965081e-01
6.448275862068965081e-01
6.448275862068965081e-01
6.448275862068965081e-01
6.448275862068965081e-01
6.413793103448275357e-01
6.413793103448275357e-01
6.413793103448275357e-01
6.413793103448275357e-01
6.344827586206897019e-01
6.275862068965517571e-01
6.275862068965517571e-01
6.275862068965517571e-01
6.258620689655172153e-01
6.241379310344827847e-01
6.241379310344827847e-01
6.241379310344827847e-01
6.275862068965517571e-01
6.310344827586207295e-01
6.344827586206897019e-01
6.413793103448275357e-01
6.413793103448275357e-01
6.413793103448275357e-01
6.448275862068965081e-01
6.448275862068965081e-01
6.448275862068965081e-01
6.517241379310344529e-01
6.551724137931034253e-01
6.517241379310344529e-01
6.551724137931034253e-01
6.551724137931034253e-01
6.551724137931034253e-01
6.517241379310344529e-01
6.500000000000000222e-01
6.482758620689654805e-01
6.465517241379310498e-01
6.448275862068965081e-01
6.413793103448275357e-01
6.310344827586207295e-01
5.999999999999999778e-01
5.482758620689655027e-01
4.862068965517241104e-01
4.137931034482758563e-01
2.999999999999999889e-01
2.655172413793103203e-01
3.206896551724137678e-01
4.931034482758620552e-01
6.379310344827586743e-01
7.586206896551723755e-01
8.413793103448276023e-01
7.793103448275862100e-01
7.344827586206896797e-01
6.827586206896552046e-01
6.758620689655172598e-01
6.603448275862069394e-01
6.448275862068965081e-01
6.413793103448275357e-01
6.413793103448275357e-01
6.344827586206897019e-01
6.344827586206897019e-01
6.310344827586207295e-01
6.310344827586207295e-01
6.275862068965517571e-01
6.275862068965517571e-01
6.241379310344827847e-01
6.241379310344827847e-01
6.206896551724138122e-01
6.206896551724138122e-01
6.137931034482758674e-01
6.103448275862068950e-01
6.068965517241379226e-01
6.034482758620689502e-01
5.999999999999999778e-01
5.931034482758620330e-01
5.862068965517240882e-01
5.793103448275862544e-01
5.724137931034483096e-01
5.620689655172413923e-01
5.517241379310344751e-01
5.413793103448275579e-01
5.310344827586206407e-01
5.172413793103448620e-01
5.034482758620689724e-01
4.931034482758620552e-01
4.793103448275862211e-01
4.689655172413793038e-01
4.586206896551723866e-01
4.517241379310344973e-01
4.517241379310344973e-01
4.551724137931034697e-01
4.620689655172413590e-01
4.655172413793103314e-01
4.724137931034482762e-01
4.827586206896551935e-01
5.000000000000000000e-01
5.137931034482758896e-01
5.310344827586206407e-01
5.517241379310344751e-01
5.655172413793103647e-01
5.758620689655172820e-01
5.862068965517240882e-01
5.931034482758620330e-01
5.999999999999999778e-01
6.068965517241379226e-01
6.137931034482758674e-01
6.206896551724138122e-01
6.241379310344827847e-01
6.275862068965517571e-01
6.275862068965517571e-01
6.275862068965517571e-01
6.310344827586207295e-01
6.310344827586207295e-01
6.310344827586207295e-01
6.310344827586207295e-01
6.344827586206897019e-01
6.344827586206897019e-01
6.344827586206897019e-01
6.344827586206897019e-01
6.344827586206897019e-01
6.344827586206897019e-01
6.344827586206897019e-01
6.344827586206897019e-01
6.344827586206897019e-01
6.344827586206897019e-01
6.344827586206897019e-01
6.344827586206897019e-01
6.344827586206897019e-01
6.344827586206897019e-01
6.310344827586207295e-01
6.275862068965517571e-01
6.275862068965517571e-01
6.241379310344827847e-01
6.241379310344827847e-01
6.241379310344827847e-01
6.241379310344827847e-01
6.241379310344827847e-01
6.241379310344827847e-01
6.241379310344827847e-01
6.241379310344827847e-01
6.241379310344827847e-01
6.241379310344827847e-01
6.241379310344827847e-01
6.241379310344827847e-01
6.275862068965517571e-01
6.275862068965517571e-01
6.275862068965517571e-01
6.310344827586207295e-01
6.310344827586207295e-01
6.344827586206897019e-01
6.344827586206897019e-01
6.344827586206897019e-01
6.379310344827586743e-01
6.379310344827586743e-01
6.379310344827586743e-01
6.379310344827586743e-01
6.379310344827586743e-01
6.379310344827586743e-01
6.344827586206897019e-01
6.344827586206897019e-01
6.344827586206897019e-01
6.310344827586207295e-01
6.310344827586207295e-01
6.310344827586207295e-01
6.275862068965517571e-01
6.275862068965517571e-01
6.275862068965517571e-01
6.241379310344827847e-01
6.275862068965517571e-01
6.275862068965517571e-01
6.275862068965517571e-01
6.275862068965517571e-01
6.275862068965517571e-01
6.275862068965517571e-01
6.310344827586207295e-01
6.310344827586207295e-01
6.310344827586207295e-01
6.310344827586207295e-01
6.310344827586207295e-01
6.275862068965517571e-01
6.275862068965517571e-01
6.241379310344827847e-01
6.241379310344827847e-01
6.206896551724138122e-01
6.172413793103448398e-01
6.172413793103448398e-01
6.137931034482758674e-01
6.137931034482758674e-01
6.068965517241379226e-01
5.999999999999999778e-01
6.034482758620689502e-01
6.172413793103448398e-01
6.241379310344827847e-01
6.310344827586207295e-01
6.344827586206897019e-01
6.344827586206897019e-01
6.413793103448275357e-01
6.413793103448275357e-01
6.448275862068965081e-01
6.448275862068965081e-01
6.465517241379310498e-01
6.482758620689654805e-01
6.500000000000000222e-01
6.517241379310344529e-01
6.551724137931034253e-01
6.551724137931034253e-01
6.551724137931034253e-01
6.551724137931034253e-01
6.551724137931034253e-01
6.551724137931034253e-01
6.448275862068965081e-01
6.448275862068965081e-01
6.344827586206897019e-01
6.206896551724138122e-01
5.793103448275862544e-01
5.137931034482758896e-01
4.379310344827586077e-01
3.241379310344827402e-01
2.620689655172414034e-01
2.724137931034482651e-01
4.206896551724138011e-01
5.862068965517240882e-01
6.999999999999999556e-01
8.413793103448276023e-01
8.137931034482758230e-01
7.482758620689655693e-01
