4.993819530284301367e-01
4.993819530284301367e-01
4.937472910278843385e-01
4.881126290273385404e-01
4.824779670267927978e-01
4.768433050262469441e-01
4.712086430257010905e-01
4.655739810251552924e-01
4.599393190246095497e-01
4.543046570240636961e-01
4.486699950235178425e-01
4.430353330229720998e-01
4.374006710224263017e-01
4.317660090218804481e-01
4.261313470213346499e-01
4.204966850207888518e-01
4.148620230202431092e-01
4.092273610196972555e-01
4.035926990191514019e-01
3.979580370186056038e-01
3.923233750180598611e-01
3.866887130175140075e-01
3.810540510169681538e-01
3.754193890164224112e-01
3.697847270158766131e-01
3.641500650153307594e-01
3.585154030147849613e-01
3.528807410142391632e-01
3.472460790136934206e-01
3.416114170131475669e-01
3.359767550126017133e-01
3.303420930120559706e-01
3.247074310115101725e-01
3.190727690109643189e-01
3.134381070104184652e-01
3.078034450098727226e-01
3.021687830093269245e-01
2.965341210087811263e-01
2.908994590082352727e-01
2.852647970076894746e-01
2.796301350071436764e-01
2.739954730065978783e-01
2.683608110060520802e-01
2.627261490055062820e-01
2.570914870049604284e-01
2.514568250044146303e-01
2.458221630038688321e-01
2.401875010033230340e-01
2.345528390027772081e-01
2.289181770022314100e-01
2.232835150016856118e-01
2.176488530011397859e-01
2.120141910005939878e-01
2.063795290000481897e-01
2.007448669995023638e-01
1.951102049989565657e-01
1.894755429984107675e-01
1.838408809978649416e-01
1.782062189973191157e-01
1.725715569967733454e-01
1.669368949962275750e-01
1.613022329956817214e-01
1.556675709951358955e-01
1.500329089945900973e-01
1.443982469940443270e-01
1.387635849934985011e-01
1.331289229929526474e-01
1.274942609924068770e-01
1.218595989918611067e-01
1.162249369913152669e-01
1.105902749907694271e-01
1.049556129902236568e-01
9.932095098967788638e-02
9.368628898913203273e-02
8.805162698858619297e-02
8.241696498804042259e-02
7.678230298749465221e-02
7.114764098694881245e-02
6.551297898640297268e-02
5.686032138442521644e-01
5.686032138442521644e-01
5.698393077873918910e-01
5.105067985166872324e-01
5.105067985166872324e-01
5.105067985166872324e-01
5.105067985166872324e-01
5.105067985166872324e-01
5.105067985166872324e-01
5.105067985166872324e-01
5.105067985166872324e-01
5.105067985166872324e-01
5.105067985166872324e-01
5.105067985166872324e-01
5.105067985166872324e-01
5.105067985166872324e-01
5.105067985166872324e-01
5.105067985166872324e-01
5.105067985166872324e-01
5.105067985166872324e-01
5.105067985166872324e-01
5.105067985166872324e-01
5.105067985166872324e-01
5.105067985166872324e-01
5.105067985166872324e-01
5.105067985166872324e-01
5.105067985166872324e-01
5.105067985166872324e-01
5.105067985166872324e-01
5.105067985166872324e-01
5.105067985166872324e-01
5.105067985166872324e-01
5.105067985166872324e-01
5.105067985166872324e-01
5.105067985166872324e-01
5.105067985166872324e-01
5.105067985166872324e-01
5.105067985166872324e-01
5.105067985166872324e-01
5.698393077873918910e-01
5.686032138442521644e-01
5.686032138442521644e-01
7.169344870210135612e-02
4.635352286773795072e-01
4.635352286773795072e-01
1.953028430160692330e-01
7.045735475896167666e-01
6.687268232385661371e-01
6.402966625463535344e-01
5.846724351050679447e-01
5.525339925834363841e-01
5.512978986402966575e-01
5.797280593325092601e-01
6.118665018541409317e-01
7.107540173053151777e-01
8.034610630407910958e-02
7.292954264524104113e-01
7.255871446229913424e-01
7.218788627935722735e-01
7.169344870210135612e-02
7.416563658838071227e-02
1.705809641532756438e-01
1.718170580964153149e-01
1.718170580964153149e-01
7.663782447466006842e-02
7.663782447466006842e-02
7.663782447466006842e-02
7.663782447466006842e-02
3.980222496909764929e-01
3.980222496909764929e-01
3.980222496909764929e-01
7.663782447466006842e-02
7.787391841779975343e-02
7.911001236093942457e-02
7.911001236093942457e-02
7.911001236093942457e-02
7.194066749072929312e-01
7.194066749072929312e-01
7.169344870210135889e-01
7.181705809641533156e-01
7.132262051915945200e-01
7.119901112484549044e-01
7.095179233621755621e-01
8.281829419035846573e-02
8.281829419035846573e-02
3.943139678615574795e-01
7.033374536464771509e-01
3.930778739184178083e-01
8.899876390605686305e-02
3.906056860321384661e-01
6.897404202719407129e-01
6.872682323856612596e-01
6.835599505562423017e-01
3.856613102595797260e-01
9.147095179233621920e-02
8.776266996291717803e-02
3.819530284301607126e-01
3.807169344870209859e-01
8.158220024721879460e-02
6.798516687268232328e-01
6.835599505562423017e-01
6.897404202719407129e-01
6.983930778739184664e-01
7.021013597033374243e-01
3.881334981458590683e-01
3.893695920889987394e-01
7.095179233621755621e-01
7.119901112484549044e-01
7.144622991347342467e-01
6.922126081582199997e-02
7.169344870210135889e-01
7.540173053152039728e-02
7.416563658838071227e-02
7.663782447466006842e-02
3.980222496909764929e-01
7.416563658838071227e-02
7.416563658838071227e-02
3.967861557478368217e-01
7.181705809641533156e-01
7.218788627935722735e-01
7.206427688504326579e-01
7.243510506798516158e-01
7.169344870210135612e-02
7.416563658838071227e-02
7.663782447466006842e-02
3.980222496909764929e-01
3.980222496909764929e-01
3.967861557478368217e-01
7.206427688504326579e-01
7.243510506798516158e-01
3.980222496909764929e-01
7.169344870210135612e-02
3.967861557478368217e-01
3.955500618046971506e-01
3.955500618046971506e-01
7.292954264524104113e-02
7.911001236093942457e-02
7.911001236093942457e-02
7.169344870210135889e-01
7.169344870210135889e-01
7.194066749072929312e-01
7.194066749072929312e-01
7.663782447466006842e-02
7.663782447466006842e-02
7.663782447466006842e-02
7.169344870210135889e-01
7.169344870210135889e-01
7.416563658838071227e-02
7.663782447466006842e-02
7.787391841779975343e-02
3.980222496909764929e-01
7.169344870210135889e-01
7.169344870210135889e-01
3.967861557478368217e-01
7.181705809641533156e-01
7.206427688504326579e-01
7.243510506798516158e-01
7.243510506798516158e-01
3.992583436341162195e-01
7.416563658838071227e-02
7.540173053152039728e-02
7.911001236093942457e-02
4.004944375772558907e-01
7.911001236093942457e-02
3.992583436341162195e-01
3.992583436341162195e-01
7.911001236093942457e-02
3.980222496909764929e-01
3.980222496909764929e-01
7.663782447466006842e-02
3.967861557478368217e-01
3.955500618046971506e-01
3.955500618046971506e-01
3.943139678615574795e-01
3.930778739184178083e-01
7.070457354758962198e-01
3.906056860321384661e-01
3.906056860321384661e-01
6.983930778739184664e-01
6.971569839307787397e-01
6.983930778739184664e-01
7.082818294190358355e-01
7.107540173053151777e-01
3.967861557478368217e-01
3.967861557478368217e-01
7.169344870210135889e-01
3.980222496909764929e-01
3.980222496909764929e-01
3.992583436341162195e-01
7.243510506798516158e-01
7.416563658838071227e-02
7.416563658838071227e-02
7.416563658838071227e-02
7.243510506798516158e-01
7.243510506798516158e-01
3.992583436341162195e-01
3.992583436341162195e-01
7.416563658838071227e-02
7.045735475896168498e-02
7.169344870210135612e-02
3.980222496909764929e-01
3.980222496909764929e-01
7.243510506798516158e-01
6.922126081582199997e-02
3.992583436341162195e-01
7.119901112484549044e-01
6.761433868974041639e-01
6.452410383189122189e-01
5.846724351050679447e-01
5.599505562422744109e-01
5.525339925834363841e-01
5.797280593325092601e-01
6.019777503090234516e-01
6.983930778739184664e-01
7.305315203955500269e-01
7.317676143386897536e-01
7.255871446229913424e-01
7.218788627935722735e-01
3.943139678615574795e-01
7.416563658838071227e-02
7.194066749072929312e-01
7.416563658838071227e-02
7.243510506798516158e-01
4.004944375772558907e-01
7.243510506798516158e-01
7.243510506798516158e-01
3.967861557478368217e-01
3.967861557478368217e-01
7.194066749072929312e-01
7.194066749072929312e-01
3.967861557478368217e-01
7.540173053152039728e-02
7.169344870210135889e-01
7.169344870210135889e-01
3.967861557478368217e-01
3.967861557478368217e-01
3.967861557478368217e-01
2.379480840543881370e-01
7.911001236093942457e-02
8.158220024721879460e-02
3.967861557478368217e-01
7.095179233621755621e-01
7.095179233621755621e-01
7.070457354758962198e-01
7.045735475896167666e-01
7.021013597033374243e-01
3.918417799752781372e-01
8.652657601977750690e-02
6.922126081582200552e-01
6.897404202719407129e-01
6.860321384425216440e-01
6.835599505562423017e-01
8.405438813349815075e-02
6.798516687268232328e-01
6.773794808405438905e-01
3.782447466007416437e-01
8.158220024721879460e-02
6.749072929542645483e-01
6.798516687268232328e-01
6.847960444993819173e-01
6.885043263288009863e-01
6.934487021013596708e-01
6.971569839307787397e-01
7.033374536464771509e-01
7.045735475896167666e-01
7.070457354758962198e-01
7.169344870210135612e-02
7.169344870210135612e-02
3.918417799752781372e-01
7.095179233621755621e-01
7.132262051915945200e-01
7.144622991347342467e-01
7.169344870210135612e-02
3.943139678615574795e-01
3.943139678615574795e-01
3.943139678615574795e-01
6.798516687268232883e-02
3.930778739184178083e-01
6.922126081582199997e-02
6.922126081582199997e-02
6.922126081582199997e-02
7.144622991347342467e-01
7.144622991347342467e-01
7.144622991347342467e-01
7.144622991347342467e-01
6.922126081582199997e-02
7.156983930778739733e-01
7.156983930778739733e-01
7.194066749072929312e-01
6.922126081582199997e-02
3.930778739184178083e-01
6.922126081582199997e-02
3.918417799752781372e-01
7.144622991347342467e-01
3.906056860321384661e-01
3.906056860321384661e-01
7.119901112484549044e-01
3.893695920889987394e-01
6.922126081582199997e-02
3.893695920889987394e-01
7.095179233621755621e-01
7.119901112484549044e-01
7.132262051915945200e-01
7.169344870210135889e-01
7.082818294190358355e-01
7.082818294190358355e-01
7.095179233621755621e-01
3.906056860321384661e-01
6.674907292954264382e-02
3.893695920889987394e-01
3.893695920889987394e-01
7.119901112484549044e-01
3.881334981458590683e-01
6.427688504326328767e-02
6.427688504326328767e-02
6.427688504326328767e-02
3.881334981458590683e-01
3.881334981458590683e-01
7.156983930778739733e-01
8.417799752781210954e-01
8.417799752781210954e-01
9.653893695920889861e-01
9.653893695920889861e-01
9.653893695920889861e-01
9.641532756489493705e-01
9.641532756489493705e-01
9.653893695920889861e-01
9.653893695920889861e-01
9.666254635352287128e-01
9.715698393077873973e-01
9.752781211372064663e-01
9.752781211372064663e-01
5.933250927070457537e-02
3.844252163164400549e-01
3.844252163164400549e-01
7.082818294190358355e-01
7.070457354758962198e-01
9.653893695920889861e-01
9.641532756489493705e-01
9.678615574783683284e-01
9.653893695920889861e-01
6.996291718170580820e-01
6.983930778739184664e-01
8.318912237330037263e-01
8.331273176761433419e-01
9.641532756489493705e-01
9.653893695920889861e-01
9.653893695920889861e-01
9.690976514215080551e-01
9.666254635352287128e-01
8.504326328800988488e-01
7.045735475896167666e-01
3.831891223733003837e-01
3.844252163164400549e-01
5.933250927070457537e-02
5.809641532756489729e-02
9.876390605686031776e-01
9.864029666254635620e-01
9.876390605686031776e-01
7.194066749072929312e-01
7.169344870210135889e-01
7.156983930778739733e-01
7.156983930778739733e-01
7.156983930778739733e-01
7.156983930778739733e-01
7.156983930778739733e-01
7.144622991347342467e-01
9.888751545117429043e-01
9.888751545117429043e-01
9.876390605686031776e-01
6.996291718170580820e-01
6.613102595797281102e-01
6.316440049443757809e-01
5.846724351050679447e-01
5.587144622991346843e-01
5.463535228677379729e-01
5.809641532756489868e-01
5.982694684796044937e-01
6.860321384425216440e-01
7.255871446229913424e-01
8.553770086526576444e-01
6.427688504326328767e-02
7.119901112484549044e-01
3.807169344870209859e-01
7.070457354758962198e-01
3.844252163164400549e-01
9.876390605686031776e-01
9.876390605686031776e-01
9.864029666254635620e-01
7.107540173053151777e-01
7.107540173053151777e-01
7.107540173053151777e-01
7.095179233621755621e-01
7.107540173053151777e-01
7.082818294190358355e-01
7.132262051915945200e-01
7.144622991347342467e-01
9.888751545117429043e-01
9.913473423980222465e-01
9.925834363411619732e-01
7.095179233621755621e-01
7.119901112484549044e-01
7.119901112484549044e-01
7.095179233621755621e-01
7.082818294190358355e-01
7.070457354758962198e-01
7.045735475896167666e-01
9.789864029666254241e-01
9.876390605686031776e-01
9.901112484548825199e-01
9.925834363411619732e-01
6.909765142150803285e-01
6.885043263288009863e-01
6.823238566131025751e-01
6.786155747836835062e-01
6.810877626699629594e-01
9.962917181705809311e-01
9.938195302843015888e-01
9.826946847960444931e-01
9.752781211372064663e-01
9.678615574783683284e-01
6.699629171817058637e-01
6.662546353522867948e-01
6.674907292954264104e-01
6.699629171817058637e-01
6.835599505562423017e-01
9.789864029666254241e-01
9.802224969097651508e-01
9.765142150803460819e-01
8.393077873918417531e-01
8.405438813349814797e-01
8.417799752781210954e-01
9.777503090234858085e-01
9.777503090234858085e-01
9.975278121137206577e-01
9.962917181705809311e-01
9.814585908529047664e-01
7.119901112484549044e-01
3.831891223733003837e-01
3.831891223733003837e-01
7.070457354758962198e-01
3.844252163164400549e-01
7.095179233621755621e-01
6.674907292954264382e-02
6.674907292954264382e-02
6.427688504326328767e-02
6.180469715698393152e-02
7.095179233621755621e-01
7.095179233621755621e-01
7.095179233621755621e-01
7.095179233621755621e-01
7.095179233621755621e-01
3.844252163164400549e-01
5.933250927070457537e-02
3.831891223733003837e-01
7.070457354758962198e-01
7.070457354758962198e-01
3.831891223733003837e-01
5.809641532756489729e-02
3.807169344870209859e-01
3.807169344870209859e-01
3.807169344870209859e-01
5.686032138442521922e-02
3.807169344870209859e-01
7.045735475896167666e-01
7.070457354758962198e-01
3.831891223733003837e-01
3.831891223733003837e-01
3.831891223733003837e-01
3.831891223733003837e-01
3.831891223733003837e-01
6.180469715698393152e-02
6.056860321384425344e-02
3.807169344870209859e-01
3.807169344870209859e-01
3.807169344870209859e-01
7.070457354758962198e-01
3.819530284301607126e-01
3.819530284301607126e-01
3.819530284301607126e-01
7.070457354758962198e-01
7.070457354758962198e-01
7.070457354758962198e-01
3.831891223733003837e-01
5.933250927070457537e-02
5.933250927070457537e-02
5.933250927070457537e-02
3.844252163164400549e-01
3.844252163164400549e-01
7.095179233621755621e-01
7.095179233621755621e-01
3.856613102595797260e-01
3.856613102595797260e-01
7.095179233621755621e-01
7.095179233621755621e-01
5.933250927070457537e-02
3.831891223733003837e-01
7.070457354758962198e-01
7.070457354758962198e-01
7.070457354758962198e-01
7.082818294190358355e-01
7.107540173053151777e-01
3.856613102595797260e-01
7.119901112484549044e-01
7.119901112484549044e-01
3.844252163164400549e-01
7.095179233621755621e-01
3.831891223733003837e-01
3.831891223733003837e-01
7.070457354758962198e-01
7.070457354758962198e-01
7.058096415327564932e-01
7.082818294190358355e-01
7.144622991347342467e-01
7.119901112484549044e-01
7.095179233621755621e-01
3.819530284301607126e-01
3.807169344870209859e-01
5.686032138442521922e-02
3.757725587144623014e-01
6.959208899876390131e-01
3.733003708281829591e-01
5.562422744128554114e-02
5.686032138442521922e-02
6.971569839307787397e-01
6.971569839307787397e-01
3.782447466007416437e-01
3.782447466007416437e-01
6.996291718170580820e-01
6.674907292954264382e-02
6.674907292954264382e-02
6.674907292954264382e-02
6.798516687268232883e-02
6.922126081582199997e-02
6.674907292954264382e-02
1.866501854140914796e-01
1.829419035846724384e-01
1.804697156983930684e-01
1.742892459826946849e-01
1.742892459826946849e-01
1.742892459826946849e-01
1.742892459826946849e-01
1.755253399258343561e-01
1.742892459826946849e-01
1.730531520395550138e-01
1.730531520395550138e-01
1.792336217552533972e-01
1.804697156983930684e-01
1.817058096415327673e-01
6.674907292954264382e-02
6.427688504326328767e-02
1.050679851668726850e-01
1.508034610630407946e-01
6.341161928306551232e-01
6.032138442521631783e-01
5.698393077873918910e-01
5.451174289245982463e-01
5.241038318912237814e-01
5.550061804697157264e-01
5.723114956736712333e-01
6.415327564894931500e-01
4.524103831891223559e-01
1.878862793572311507e-01
1.854140914709517807e-01
1.817058096415327673e-01
1.718170580964153149e-01
1.656365883807169315e-01
1.594561186650185480e-01
1.557478368355995069e-01
1.520395550061804657e-01
1.495673671199011234e-01
7.095179233621755621e-01
3.881334981458590683e-01
3.881334981458590683e-01
1.940667490729295341e-01
1.730531520395550138e-01
1.730531520395550138e-01
1.705809641532756438e-01
1.483312731767614245e-01
1.483312731767614245e-01
1.582200247218788491e-01
1.681087762669963015e-01
1.582200247218788491e-01
1.693448702101359726e-01
1.681087762669963015e-01
1.594561186650185480e-01
1.508034610630407946e-01
1.483312731767614245e-01
6.971569839307787397e-01
6.946847960444993975e-01
6.922126081582200552e-01
5.339925834363411505e-01
3.757725587144623014e-01
6.885043263288009863e-01
6.847960444993819173e-01
6.810877626699629594e-01
6.773794808405438905e-01
6.711990111248454793e-01
6.699629171817058637e-01
6.674907292954264104e-01
3.572311495673671233e-01
3.547589616810877811e-01
6.576019777503090413e-01
6.588380716934486570e-01
6.625463535228677259e-01
6.674907292954264104e-01
6.711990111248454793e-01
6.761433868974041639e-01
6.810877626699629594e-01
6.835599505562423017e-01
6.885043263288009863e-01
6.922126081582200552e-01
6.971569839307787397e-01
3.794808405438813148e-01
6.996291718170580820e-01
3.819530284301607126e-01
6.180469715698393152e-02
7.045735475896167666e-01
7.045735475896167666e-01
6.427688504326328767e-02
6.427688504326328767e-02
3.856613102595797260e-01
7.070457354758962198e-01
7.070457354758962198e-01
7.070457354758962198e-01
3.881334981458590683e-01
3.893695920889987394e-01
7.095179233621755621e-01
7.095179233621755621e-01
3.881334981458590683e-01
3.881334981458590683e-01
3.868974042027193971e-01
3.868974042027193971e-01
7.070457354758962198e-01
7.070457354758962198e-01
7.070457354758962198e-01
7.070457354758962198e-01
3.856613102595797260e-01
3.856613102595797260e-01
3.856613102595797260e-01
3.856613102595797260e-01
7.045735475896167666e-01
7.045735475896167666e-01
3.844252163164400549e-01
6.427688504326328767e-02
6.427688504326328767e-02
7.045735475896167666e-01
7.070457354758962198e-01
7.070457354758962198e-01
7.070457354758962198e-01
7.070457354758962198e-01
3.856613102595797260e-01
3.856613102595797260e-01
6.427688504326328767e-02
3.844252163164400549e-01
3.844252163164400549e-01
3.844252163164400549e-01
3.844252163164400549e-01
3.844252163164400549e-01
7.070457354758962198e-01
3.881334981458590683e-01
6.674907292954264382e-02
6.674907292954264382e-02
6.674907292954264382e-02
6.674907292954264382e-02
3.893695920889987394e-01
3.893695920889987394e-01
3.893695920889987394e-01
3.893695920889987394e-01
3.893695920889987394e-01
6.551297898640297268e-02
3.893695920889987394e-01
6.922126081582199997e-02
6.922126081582199997e-02
6.922126081582199997e-02
6.922126081582199997e-02
3.906056860321384661e-01
7.119901112484549044e-01
3.930778739184178083e-01
3.918417799752781372e-01
7.119901112484549044e-01
3.906056860321384661e-01
3.906056860321384661e-01
3.893695920889987394e-01
7.095179233621755621e-01
7.095179233621755621e-01
7.095179233621755621e-01
7.095179233621755621e-01
7.095179233621755621e-01
3.893695920889987394e-01
3.893695920889987394e-01
3.893695920889987394e-01
3.893695920889987394e-01
3.893695920889987394e-01
7.119901112484549044e-01
7.416563658838071227e-02
7.416563658838071227e-02
3.943139678615574795e-01
7.144622991347342467e-01
7.144622991347342467e-01
7.144622991347342467e-01
7.169344870210135612e-02
7.169344870210135612e-02
7.169344870210135612e-02
3.918417799752781372e-01
3.918417799752781372e-01
3.918417799752781372e-01
7.169344870210135612e-02
7.169344870210135612e-02
7.156983930778739733e-01
3.930778739184178083e-01
3.930778739184178083e-01
7.169344870210135612e-02
7.156983930778739733e-01
7.156983930778739733e-01
7.144622991347342467e-01
7.107540173053151777e-01
7.045735475896167666e-01
7.008652657601978087e-01
9.789864029666254241e-01
9.789864029666254241e-01
9.802224969097651508e-01
6.674907292954264382e-02
6.996291718170580820e-01
7.008652657601978087e-01
7.008652657601978087e-01
7.033374536464771509e-01
7.070457354758962198e-01
7.095179233621755621e-01
3.918417799752781372e-01
9.851668726823238353e-01
9.802224969097651508e-01
9.826946847960444931e-01
9.814585908529047664e-01
9.678615574783683284e-01
7.206427688504326579e-01
8.430160692212608220e-01
7.206427688504326579e-01
7.194066749072929312e-01
7.218788627935722735e-01
8.430160692212608220e-01
9.690976514215080551e-01
9.752781211372064663e-01
9.839307787391842197e-01
9.839307787391842197e-01
9.839307787391842197e-01
3.955500618046971506e-01
3.955500618046971506e-01
7.416563658838071227e-02
3.906056860321384661e-01
7.058096415327564932e-01
6.588380716934486570e-01
6.254635352286773697e-01
5.797280593325092601e-01
5.550061804697157264e-01
5.377008652657602195e-01
5.723114956736712333e-01
5.871446229913472870e-01
6.798516687268232328e-01
7.243510506798516158e-01
7.218788627935722735e-01
9.864029666254635620e-01
9.876390605686031776e-01
9.888751545117429043e-01
7.181705809641533156e-01
7.206427688504326579e-01
7.194066749072929312e-01
7.194066749072929312e-01
7.181705809641533156e-01
7.194066749072929312e-01
7.169344870210135889e-01
7.169344870210135889e-01
9.876390605686031776e-01
9.901112484548825199e-01
9.925834363411619732e-01
7.663782447466006842e-02
7.119901112484549044e-01
7.119901112484549044e-01
7.119901112484549044e-01
7.119901112484549044e-01
9.864029666254635620e-01
9.876390605686031776e-01
9.876390605686031776e-01
7.144622991347342467e-01
7.107540173053151777e-01
7.119901112484549044e-01
7.095179233621755621e-01
7.070457354758962198e-01
7.045735475896167666e-01
7.008652657601978087e-01
7.021013597033374243e-01
9.888751545117429043e-01
9.888751545117429043e-01
9.876390605686031776e-01
6.823238566131025751e-01
6.798516687268232328e-01
6.798516687268232328e-01
6.724351050679852060e-01
6.699629171817058637e-01
6.711990111248454793e-01
6.711990111248454793e-01
9.777503090234858085e-01
9.888751545117429043e-01
9.864029666254635620e-01
6.847960444993819173e-01
6.786155747836835062e-01
6.835599505562423017e-01
6.885043263288009863e-01
6.946847960444993975e-01
7.033374536464771509e-01
9.975278121137206577e-01
9.913473423980222465e-01
9.814585908529047664e-01
9.740420271940667396e-01
9.666254635352287128e-01
9.641532756489493705e-01
7.156983930778739733e-01
3.943139678615574795e-01
3.955500618046971506e-01
7.663782447466006842e-02
9.888751545117429043e-01
9.888751545117429043e-01
9.888751545117429043e-01
7.181705809641533156e-01
7.181705809641533156e-01
7.194066749072929312e-01
7.181705809641533156e-01
7.181705809641533156e-01
7.181705809641533156e-01
7.206427688504326579e-01
8.491965389369592332e-01
9.888751545117429043e-01
9.913473423980222465e-01
9.913473423980222465e-01
7.663782447466006842e-02
7.181705809641533156e-01
7.181705809641533156e-01
7.156983930778739733e-01
7.156983930778739733e-01
7.169344870210135889e-01
7.156983930778739733e-01
9.876390605686031776e-01
9.901112484548825199e-01
9.925834363411619732e-01
3.943139678615574795e-01
3.943139678615574795e-01
3.943139678615574795e-01
7.144622991347342467e-01
7.169344870210135889e-01
9.653893695920889861e-01
9.666254635352287128e-01
9.740420271940667396e-01
9.814585908529047664e-01
9.876390605686031776e-01
9.950556242274413155e-01
1.000000000000000000e+00
7.181705809641533156e-01
7.169344870210135889e-01
8.603213844252163289e-01
9.950556242274413155e-01
9.901112484548825199e-01
9.839307787391842197e-01
9.777503090234858085e-01
9.715698393077873973e-01
9.653893695920889861e-01
7.218788627935722735e-01
7.206427688504326579e-01
7.540173053152039728e-02
7.169344870210135889e-01
7.169344870210135889e-01
7.181705809641533156e-01
7.169344870210135889e-01
7.911001236093942457e-02
7.911001236093942457e-02
3.992583436341162195e-01
3.980222496909764929e-01
3.980222496909764929e-01
7.911001236093942457e-02
7.911001236093942457e-02
3.980222496909764929e-01
7.169344870210135889e-01
7.169344870210135889e-01
3.980222496909764929e-01
3.980222496909764929e-01
3.980222496909764929e-01
7.911001236093942457e-02
7.911001236093942457e-02
7.911001236093942457e-02
7.911001236093942457e-02
7.911001236093942457e-02
3.980222496909764929e-01
3.980222496909764929e-01
3.980222496909764929e-01
7.169344870210135889e-01
7.169344870210135889e-01
7.169344870210135889e-01
7.169344870210135889e-01
7.169344870210135889e-01
3.967861557478368217e-01
7.663782447466006842e-02
7.663782447466006842e-02
7.787391841779975343e-02
7.911001236093942457e-02
7.169344870210135889e-01
3.967861557478368217e-01
7.663782447466006842e-02
7.206427688504326579e-01
7.663782447466006842e-02
3.967861557478368217e-01
3.967861557478368217e-01
3.967861557478368217e-01
3.967861557478368217e-01
3.955500618046971506e-01
3.955500618046971506e-01
7.663782447466006842e-02
7.119901112484549044e-01
7.095179233621755621e-01
3.893695920889987394e-01
6.922126081582199997e-02
6.674907292954264382e-02
6.922126081582199997e-02
3.868974042027193971e-01
7.033374536464771509e-01
3.893695920889987394e-01
3.906056860321384661e-01
7.082818294190358355e-01
7.107540173053151777e-01
3.980222496909764929e-01
3.992583436341162195e-01
3.992583436341162195e-01
7.194066749072929312e-01
8.158220024721879460e-02
8.158220024721879460e-02
4.004944375772558907e-01
7.218788627935722735e-01
8.405438813349815075e-02
8.405438813349815075e-02
8.529048207663782188e-02
8.652657601977750690e-02
7.292954264524104113e-01
7.292954264524104113e-01
7.292954264524104113e-01
7.292954264524104113e-01
7.292954264524104113e-01
7.292954264524104113e-01
4.091470951792336441e-01
2.478368355995055616e-01
8.652657601977750690e-02
8.652657601977750690e-02
6.699629171817058637e-01
6.353522867737948499e-01
5.945611866501854248e-01
5.723114956736712333e-01
5.599505562422744109e-01
5.723114956736712333e-01
5.920889987639060825e-01
6.650185414091470681e-01
7.305315203955500269e-01
4.202719406674907399e-01
4.140914709517923287e-01
8.899876390605686305e-02
8.899876390605686305e-02
4.116192830655129864e-01
4.116192830655129864e-01
4.116192830655129864e-01
4.116192830655129864e-01
4.103831891223733153e-01
4.103831891223733153e-01
4.103831891223733153e-01
9.147095179233621920e-02
9.147095179233621920e-02
7.292954264524104113e-01
7.292954264524104113e-01
7.292954264524104113e-01
7.292954264524104113e-01
4.103831891223733153e-01
4.103831891223733153e-01
4.103831891223733153e-01
4.091470951792336441e-01
4.091470951792336441e-01
4.091470951792336441e-01
4.091470951792336441e-01
8.899876390605686305e-02
8.899876390605686305e-02
8.899876390605686305e-02
8.529048207663782188e-02
4.029666254635352329e-01
7.169344870210135889e-01
7.169344870210135889e-01
7.144622991347342467e-01
7.095179233621755621e-01
7.070457354758962198e-01
7.033374536464771509e-01
6.996291718170580820e-01
6.959208899876390131e-01
6.922126081582200552e-01
6.897404202719407129e-01
6.872682323856612596e-01
6.847960444993819173e-01
3.770086526576019725e-01
3.794808405438813148e-01
6.897404202719407129e-01
6.934487021013596708e-01
6.983930778739184664e-01
7.008652657601978087e-01
7.058096415327564932e-01
7.107540173053151777e-01
7.144622991347342467e-01
7.194066749072929312e-01
4.079110012360939175e-01
8.899876390605686305e-02
7.292954264524104113e-01
7.317676143386897536e-01
4.140914709517923287e-01
9.394313967861557535e-02
9.394313967861557535e-02
9.641532756489493150e-02
9.641532756489493150e-02
4.165636588380716709e-01
7.379480840543881648e-01
7.391841779975277804e-01
6.551297898640297268e-02
6.551297898640297268e-02
6.551297898640297268e-02
6.551297898640297268e-02
6.798516687268232883e-02
7.045735475896168498e-02
1.532756489493201368e-01
1.569839307787391780e-01
1.619283065512978903e-01
1.681087762669963015e-01
1.755253399258343561e-01
1.817058096415327673e-01
1.891223733003708218e-01
1.915945611866501919e-01
1.928306551297898630e-01
1.903584672435104930e-01
1.866501854140914796e-01
1.804697156983930684e-01
1.755253399258343561e-01
1.693448702101359726e-01
1.619283065512978903e-01
1.545117428924598357e-01
1.508034610630407946e-01
1.470951792336217534e-01
6.180469715698393152e-02
6.180469715698393152e-02
1.915945611866501919e-01
1.915945611866501919e-01
1.928306551297898630e-01
1.928306551297898630e-01
1.693448702101359726e-01
1.681087762669963015e-01
1.705809641532756438e-01
1.705809641532756438e-01
1.668726823238566026e-01
1.681087762669963015e-01
1.693448702101359726e-01
1.656365883807169315e-01
1.730531520395550138e-01
1.767614338689740550e-01
1.829419035846724384e-01
4.004944375772558907e-01
4.004944375772558907e-01
4.011124845488256985e-01
4.017305315203955618e-01
4.017305315203955618e-01
4.017305315203955618e-01
4.017305315203955618e-01
7.367119901112484381e-01
7.391841779975277804e-01
7.391841779975277804e-01
7.391841779975277804e-01
7.391841779975277804e-01
6.674907292954264382e-02
6.674907292954264382e-02
4.017305315203955618e-01
4.017305315203955618e-01
4.017305315203955618e-01
6.674907292954264382e-02
4.004944375772558907e-01
4.004944375772558907e-01
7.342398022249690959e-01
7.342398022249690959e-01
3.992583436341162195e-01
6.427688504326328767e-02
6.427688504326328767e-02
3.980222496909764929e-01
3.980222496909764929e-01
6.427688504326328767e-02
3.980222496909764929e-01
7.330037082818293692e-01
7.367119901112484381e-01
4.017305315203955618e-01
6.427688504326328767e-02
4.017305315203955618e-01
7.391841779975277804e-01
4.017305315203955618e-01
7.367119901112484381e-01
7.367119901112484381e-01
7.367119901112484381e-01
4.004944375772558907e-01
4.004944375772558907e-01
4.004944375772558907e-01
7.342398022249690959e-01
7.342398022249690959e-01
3.992583436341162195e-01
3.992583436341162195e-01
7.342398022249690959e-01
3.980222496909764929e-01
3.980222496909764929e-01
7.317676143386897536e-01
7.305315203955500269e-01
7.255871446229913424e-01
3.930778739184178083e-01
5.933250927070457537e-02
5.562422744128554114e-02
5.438813349814585613e-02
5.191594561186649998e-02
5.191594561186649998e-02
5.438813349814585613e-02
5.809641532756489729e-02
6.180469715698393152e-02
3.930778739184178083e-01
7.255871446229913424e-01
6.427688504326328767e-02
3.967861557478368217e-01
7.292954264524104113e-01
7.317676143386897536e-01
6.674907292954264382e-02
4.004944375772558907e-01
4.017305315203955618e-01
4.017305315203955618e-01
4.029666254635352329e-01
4.029666254635352329e-01
4.029666254635352329e-01
4.017305315203955618e-01
4.017305315203955618e-01
4.017305315203955618e-01
6.922126081582199997e-02
4.004944375772558907e-01
4.004944375772558907e-01
6.551297898640297268e-02
6.427688504326328767e-02
5.315203955500617805e-02
3.090234857849196576e-02
2.719406674907292806e-02
6.798516687268232328e-01
6.106304079110012051e-01
1.273176761433869042e-01
1.495673671199011234e-01
1.730531520395550138e-01
6.106304079110012051e-01
6.353522867737948499e-01
6.922126081582200552e-01
1.940667490729295341e-01
1.520395550061804657e-01
1.174289245982694657e-01
9.394313967861557535e-02
8.034610630407910958e-02
6.922126081582199997e-02
6.551297898640297268e-02
6.304079110012360265e-02
5.933250927070457537e-02
5.686032138442521922e-02
5.438813349814585613e-02
3.918417799752781372e-01
5.191594561186649998e-02
5.191594561186649998e-02
5.191594561186649998e-02
5.191594561186649998e-02
7.292954264524104113e-01
7.292954264524104113e-01
3.881334981458590683e-01
4.573547589616810960e-02
4.202719406674907537e-02
4.202719406674907537e-02
3.844252163164400549e-01
3.955500618046971228e-02
3.584672435105067806e-02
3.461063040791099998e-02
3.770086526576019725e-01
3.745364647713226303e-01
2.595797280593324999e-02
2.472187886279357191e-02
3.658838071693448768e-01
1.483312731767614384e-02
1.236093943139678596e-02
3.547589616810877811e-01
3.522867737948083833e-01
6.946847960444993975e-01
6.922126081582200552e-01
6.885043263288009863e-01
6.847960444993819173e-01
3.399258343634116164e-01
3.386897404202719453e-01
0.000000000000000000e+00
4.944375772558714036e-03
9.888751545117428071e-03
1.730531520395549999e-02
2.595797280593324999e-02
3.213844252163164383e-02
3.658838071693448768e-01
3.708281829419035613e-01
7.058096415327564932e-01
7.119901112484549044e-01
7.132262051915945200e-01
3.856613102595797260e-01
7.206427688504326579e-01
3.893695920889987394e-01
5.315203955500617805e-02
5.315203955500617805e-02
5.686032138442521922e-02
5.686032138442521922e-02
7.292954264524104113e-01
7.292954264524104113e-01
3.943139678615574795e-01
5.933250927070457537e-02
3.955500618046971506e-01
7.317676143386897536e-01
7.317676143386897536e-01
5.809641532756489729e-02
3.955500618046971506e-01
7.292954264524104113e-01
7.292954264524104113e-01
7.292954264524104113e-01
7.292954264524104113e-01
3.943139678615574795e-01
3.943139678615574795e-01
5.933250927070457537e-02
5.933250927070457537e-02
5.686032138442521922e-02
5.933250927070457537e-02
3.918417799752781372e-01
3.918417799752781372e-01
3.918417799752781372e-01
7.243510506798516158e-01
3.918417799752781372e-01
7.243510506798516158e-01
7.243510506798516158e-01
3.918417799752781372e-01
3.918417799752781372e-01
7.243510506798516158e-01
7.243510506798516158e-01
3.918417799752781372e-01
6.180469715698393152e-02
6.180469715698393152e-02
6.180469715698393152e-02
6.180469715698393152e-02
3.930778739184178083e-01
3.930778739184178083e-01
3.930778739184178083e-01
6.427688504326328767e-02
6.427688504326328767e-02
6.427688504326328767e-02
6.427688504326328767e-02
6.427688504326328767e-02
6.427688504326328767e-02
6.427688504326328767e-02
6.427688504326328767e-02
6.427688504326328767e-02
3.943139678615574795e-01
3.943139678615574795e-01
3.943139678615574795e-01
3.943139678615574795e-01
3.955500618046971506e-01
3.955500618046971506e-01
3.955500618046971506e-01
6.674907292954264382e-02
3.955500618046971506e-01
7.243510506798516158e-01
7.243510506798516158e-01
3.955500618046971506e-01
3.955500618046971506e-01
3.955500618046971506e-01
3.955500618046971506e-01
6.674907292954264382e-02
6.674907292954264382e-02
3.943139678615574795e-01
6.674907292954264382e-02
6.674907292954264382e-02
6.674907292954264382e-02
6.674907292954264382e-02
6.674907292954264382e-02
6.674907292954264382e-02
3.943139678615574795e-01
3.943139678615574795e-01
3.943139678615574795e-01
3.943139678615574795e-01
3.943139678615574795e-01
3.943139678615574795e-01
3.943139678615574795e-01
3.943139678615574795e-01
3.943139678615574795e-01
3.943139678615574795e-01
3.943139678615574795e-01
3.943139678615574795e-01
7.194066749072929312e-01
7.194066749072929312e-01
3.930778739184178083e-01
6.551297898640297268e-02
3.930778739184178083e-01
3.930778739184178083e-01
3.930778739184178083e-01
7.169344870210135889e-01
7.169344870210135889e-01
3.918417799752781372e-01
6.674907292954264382e-02
6.674907292954264382e-02
7.144622991347342467e-01
3.881334981458590683e-01
3.868974042027193971e-01
6.427688504326328767e-02
7.021013597033374243e-01
7.021013597033374243e-01
5.686032138442521922e-02
3.782447466007416437e-01
5.438813349814585613e-02
5.933250927070457537e-02
3.831891223733003837e-01
7.082818294190358355e-01
7.119901112484549044e-01
6.674907292954264382e-02
6.674907292954264382e-02
3.930778739184178083e-01
3.930778739184178083e-01
7.181705809641533156e-01
3.955500618046971506e-01
7.169344870210135612e-02
7.169344870210135612e-02
7.169344870210135612e-02
3.967861557478368217e-01
3.980222496909764929e-01
3.980222496909764929e-01
3.980222496909764929e-01
7.243510506798516158e-01
7.243510506798516158e-01
7.243510506798516158e-01
3.980222496909764929e-01
3.980222496909764929e-01
6.180469715698393152e-02
4.820766378244746575e-02
2.966625463535228768e-02
6.835599505562423017e-01
6.576019777503090413e-01
5.883807169344870136e-01
1.322620519159456165e-01
1.557478368355995069e-01
1.915945611866501919e-01
6.019777503090234516e-01
6.378244746600741921e-01
2.348578491965389314e-01
1.878862793572311507e-01
1.446229913473424111e-01
1.112484548825710823e-01
8.899876390605686305e-02
7.787391841779975343e-02
6.798516687268232883e-02
6.551297898640297268e-02
6.180469715698393152e-02
7.194066749072929312e-01
3.893695920889987394e-01
5.933250927070457537e-02
5.686032138442521922e-02
3.868974042027193971e-01
3.856613102595797260e-01
3.856613102595797260e-01
7.169344870210135889e-01
5.191594561186649998e-02
5.191594561186649998e-02
3.819530284301607126e-01
7.144622991347342467e-01
4.697156983930778767e-02
3.794808405438813148e-01
7.119901112484549044e-01
4.079110012360939730e-02
4.079110012360939730e-02
7.095179233621755621e-01
3.720642768850432880e-01
3.090234857849196576e-02
2.966625463535228768e-02
3.646477132262052057e-01
2.472187886279357191e-02
2.224969097651421576e-02
3.559950556242274522e-01
1.236093943139678596e-02
6.872682323856612596e-01
3.448702101359703565e-01
6.773794808405438905e-01
6.749072929542645483e-01
3.374536464771322741e-01
3.374536464771322741e-01
4.944375772558714036e-03
9.888751545117428071e-03
1.236093943139678596e-02
1.606922126081582192e-02
2.348578491965389384e-02
3.090234857849196576e-02
3.559950556242274522e-01
3.609394313967861367e-01
6.847960444993819173e-01
6.909765142150803285e-01
6.971569839307787397e-01
7.008652657601978087e-01
7.045735475896167666e-01
7.082818294190358355e-01
3.831891223733003837e-01
7.119901112484549044e-01
5.933250927070457537e-02
7.144622991347342467e-01
3.881334981458590683e-01
3.881334981458590683e-01
7.144622991347342467e-01
7.144622991347342467e-01
7.144622991347342467e-01
7.144622991347342467e-01
7.144622991347342467e-01
3.893695920889987394e-01
6.304079110012360265e-02
3.893695920889987394e-01
3.893695920889987394e-01
6.427688504326328767e-02
6.427688504326328767e-02
6.180469715698393152e-02
6.180469715698393152e-02
6.180469715698393152e-02
3.868974042027193971e-01
3.868974042027193971e-01
3.868974042027193971e-01
6.180469715698393152e-02
3.868974042027193971e-01
3.868974042027193971e-01
6.180469715698393152e-02
6.180469715698393152e-02
6.180469715698393152e-02
6.180469715698393152e-02
3.868974042027193971e-01
3.868974042027193971e-01
3.868974042027193971e-01
6.427688504326328767e-02
6.427688504326328767e-02
6.427688504326328767e-02
6.427688504326328767e-02
3.881334981458590683e-01
3.881334981458590683e-01
7.095179233621755621e-01
3.881334981458590683e-01
3.881334981458590683e-01
7.095179233621755621e-01
3.881334981458590683e-01
3.881334981458590683e-01
3.881334981458590683e-01
3.881334981458590683e-01
7.095179233621755621e-01
3.893695920889987394e-01
6.922126081582199997e-02
6.922126081582199997e-02
3.893695920889987394e-01
6.922126081582199997e-02
6.922126081582199997e-02
3.893695920889987394e-01
3.893695920889987394e-01
3.893695920889987394e-01
3.893695920889987394e-01
3.893695920889987394e-01
3.893695920889987394e-01
3.893695920889987394e-01
3.893695920889987394e-01
7.095179233621755621e-01
7.095179233621755621e-01
3.893695920889987394e-01
3.906056860321384661e-01
3.906056860321384661e-01
3.906056860321384661e-01
7.169344870210135612e-02
7.169344870210135612e-02
7.169344870210135612e-02
7.169344870210135612e-02
3.893695920889987394e-01
7.095179233621755621e-01
7.095179233621755621e-01
7.095179233621755621e-01
7.095179233621755621e-01
3.906056860321384661e-01
3.906056860321384661e-01
7.169344870210135612e-02
3.918417799752781372e-01
3.918417799752781372e-01
3.918417799752781372e-01
3.918417799752781372e-01
3.918417799752781372e-01
3.918417799752781372e-01
3.918417799752781372e-01
3.918417799752781372e-01
3.918417799752781372e-01
3.918417799752781372e-01
3.918417799752781372e-01
2.317676143386897536e-01
7.169344870210135612e-02
7.169344870210135612e-02
3.906056860321384661e-01
7.095179233621755621e-01
3.881334981458590683e-01
3.868974042027193971e-01
7.021013597033374243e-01
7.008652657601978087e-01
6.983930778739184664e-01
6.922126081582200552e-01
3.782447466007416437e-01
6.180469715698393152e-02
5.562422744128554114e-02
5.686032138442521922e-02
3.770086526576019725e-01
6.674907292954264382e-02
6.674907292954264382e-02
6.674907292954264382e-02
6.674907292954264382e-02
6.674907292954264382e-02
7.169344870210135612e-02
1.545117428924598357e-01
1.557478368355995069e-01
1.619283065512978903e-01
1.693448702101359726e-01
1.767614338689740550e-01
1.841779975278121095e-01
1.878862793572311507e-01
1.903584672435104930e-01
1.940667490729295341e-01
1.915945611866501919e-01
1.878862793572311507e-01
1.804697156983930684e-01
1.730531520395550138e-01
1.656365883807169315e-01
1.594561186650185480e-01
1.532756489493201368e-01
1.483312731767614245e-01
1.483312731767614245e-01
6.637824474660074525e-01
6.155747836835600006e-01
5.735475896168108489e-01
5.512978986402966575e-01
5.265760197775031237e-01
5.661310259579728221e-01
5.735475896168108489e-01
6.019777503090234516e-01
1.508034610630407946e-01
1.804697156983930684e-01
1.804697156983930684e-01
1.681087762669963015e-01
1.668726823238566026e-01
1.693448702101359726e-01
1.779975278121137261e-01
1.767614338689740550e-01
1.804697156983930684e-01
3.930778739184178083e-01
3.930778739184178083e-01
3.930778739184178083e-01
8.158220024721879460e-02
8.158220024721879460e-02
8.158220024721879460e-02
3.918417799752781372e-01
3.918417799752781372e-01
7.021013597033374243e-01
7.021013597033374243e-01
7.021013597033374243e-01
3.906056860321384661e-01
3.893695920889987394e-01
3.893695920889987394e-01
3.893695920889987394e-01
7.911001236093942457e-02
3.881334981458590683e-01
7.911001236093942457e-02
7.663782447466006842e-02
3.844252163164400549e-01
3.831891223733003837e-01
6.885043263288009863e-01
3.770086526576019725e-01
3.745364647713226303e-01
3.720642768850432880e-01
6.749072929542645483e-01
3.634116192830655345e-01
5.191594561186649998e-02
3.559950556242274522e-01
6.600741656365883836e-01
3.485784919653893699e-01
3.584672435105067806e-02
3.448702101359703565e-01
3.448702101359703565e-01
6.514215080346106301e-01
6.526576019777503568e-01
6.563658838071693147e-01
6.613102595797281102e-01
3.572311495673671233e-01
6.699629171817058637e-01
3.671199011124845479e-01
6.786155747836835062e-01
3.745364647713226303e-01
3.782447466007416437e-01
3.819530284301607126e-01
3.844252163164400549e-01
3.856613102595797260e-01
3.881334981458590683e-01
6.996291718170580820e-01
6.996291718170580820e-01
6.996291718170580820e-01
6.996291718170580820e-01
3.906056860321384661e-01
3.906056860321384661e-01
7.021013597033374243e-01
7.021013597033374243e-01
7.021013597033374243e-01
7.021013597033374243e-01
3.918417799752781372e-01
7.021013597033374243e-01
7.021013597033374243e-01
7.058096415327564932e-01
3.906056860321384661e-01
3.906056860321384661e-01
3.906056860321384661e-01
6.996291718170580820e-01
6.996291718170580820e-01
6.996291718170580820e-01
3.893695920889987394e-01
3.893695920889987394e-01
8.158220024721879460e-02
8.158220024721879460e-02
8.158220024721879460e-02
8.158220024721879460e-02
8.158220024721879460e-02
3.893695920889987394e-01
3.893695920889987394e-01
8.158220024721879460e-02
8.158220024721879460e-02
8.158220024721879460e-02
8.158220024721879460e-02
8.158220024721879460e-02
3.893695920889987394e-01
8.405438813349815075e-02
8.405438813349815075e-02
3.906056860321384661e-01
3.906056860321384661e-01
3.906056860321384661e-01
8.652657601977750690e-02
8.652657601977750690e-02
8.652657601977750690e-02
8.652657601977750690e-02
8.652657601977750690e-02
8.652657601977750690e-02
8.652657601977750690e-02
8.652657601977750690e-02
8.652657601977750690e-02
8.652657601977750690e-02
3.918417799752781372e-01
3.918417799752781372e-01
3.918417799752781372e-01
3.918417799752781372e-01
3.918417799752781372e-01
3.918417799752781372e-01
3.918417799752781372e-01
3.918417799752781372e-01
8.899876390605686305e-02
3.930778739184178083e-01
6.971569839307787397e-01
6.971569839307787397e-01
3.930778739184178083e-01
3.930778739184178083e-01
3.930778739184178083e-01
3.930778739184178083e-01
8.899876390605686305e-02
6.971569839307787397e-01
6.971569839307787397e-01
6.971569839307787397e-01
8.899876390605686305e-02
8.899876390605686305e-02
8.899876390605686305e-02
3.918417799752781372e-01
8.899876390605686305e-02
8.899876390605686305e-02
8.899876390605686305e-02
8.899876390605686305e-02
8.899876390605686305e-02
8.899876390605686305e-02
8.899876390605686305e-02
3.906056860321384661e-01
3.906056860321384661e-01
3.893695920889987394e-01
3.893695920889987394e-01
6.897404202719407129e-01
6.885043263288009863e-01
6.835599505562423017e-01
6.823238566131025751e-01
6.798516687268232328e-01
6.761433868974041639e-01
6.749072929542645483e-01
6.761433868974041639e-01
6.749072929542645483e-01
6.749072929542645483e-01
6.749072929542645483e-01
3.794808405438813148e-01
6.798516687268232328e-01
6.823238566131025751e-01
6.847960444993819173e-01
3.868974042027193971e-01
6.897404202719407129e-01
3.893695920889987394e-01
3.906056860321384661e-01
3.906056860321384661e-01
3.918417799752781372e-01
6.922126081582200552e-01
6.922126081582200552e-01
6.922126081582200552e-01
6.922126081582200552e-01
6.922126081582200552e-01
6.922126081582200552e-01
6.922126081582200552e-01
6.922126081582200552e-01
6.922126081582200552e-01
6.922126081582200552e-01
3.930778739184178083e-01
9.641532756489493150e-02
9.888751545117428765e-02
6.699629171817058637e-01
6.205191594561186852e-01
3.349814585908529319e-01
5.512978986402966575e-01
5.488257107540173152e-01
5.302843016069220816e-01
5.661310259579728221e-01
5.648949320148330955e-01
8.158220024721879460e-02
9.023485784919653419e-02
6.959208899876390131e-01
6.922126081582200552e-01
6.872682323856612596e-01
3.893695920889987394e-01
3.893695920889987394e-01
3.893695920889987394e-01
3.893695920889987394e-01
3.893695920889987394e-01
3.893695920889987394e-01
6.872682323856612596e-01
6.872682323856612596e-01
6.872682323856612596e-01
6.872682323856612596e-01
6.872682323856612596e-01
3.881334981458590683e-01
8.899876390605686305e-02
3.868974042027193971e-01
3.868974042027193971e-01
6.847960444993819173e-01
6.847960444993819173e-01
3.856613102595797260e-01
3.856613102595797260e-01
3.856613102595797260e-01
6.810877626699629594e-01
6.798516687268232328e-01
8.405438813349815075e-02
8.158220024721879460e-02
3.794808405438813148e-01
6.736711990111248216e-01
7.911001236093942457e-02
7.540173053152039728e-02
7.169344870210135612e-02
6.625463535228677259e-01
6.588380716934486570e-01
3.584672435105067945e-01
3.535228677379481099e-01
3.510506798516687121e-01
3.461063040791100276e-01
6.415327564894931500e-01
6.402966625463535344e-01
6.402966625463535344e-01
6.452410383189122189e-01
6.452410383189122189e-01
6.452410383189122189e-01
6.477132262051915612e-01
5.933250927070457537e-02
6.304079110012360265e-02
6.922126081582199997e-02
6.625463535228677259e-01
7.663782447466006842e-02
8.158220024721879460e-02
8.405438813349815075e-02
8.652657601977750690e-02
3.844252163164400549e-01
3.844252163164400549e-01
6.823238566131025751e-01
9.147095179233621920e-02
6.847960444993819173e-01
3.893695920889987394e-01
9.394313967861557535e-02
3.881334981458590683e-01
3.881334981458590683e-01
3.881334981458590683e-01
3.881334981458590683e-01
3.881334981458590683e-01
3.881334981458590683e-01
3.881334981458590683e-01
3.881334981458590683e-01
6.847960444993819173e-01
6.847960444993819173e-01
3.893695920889987394e-01
6.835599505562423017e-01
6.835599505562423017e-01
9.147095179233621920e-02
9.147095179233621920e-02
9.147095179233621920e-02
9.147095179233621920e-02
9.147095179233621920e-02
3.868974042027193971e-01
3.868974042027193971e-01
3.868974042027193971e-01
6.860321384425216440e-01
6.823238566131025751e-01
6.823238566131025751e-01
3.856613102595797260e-01
3.856613102595797260e-01
6.798516687268232328e-01
6.798516687268232328e-01
3.856613102595797260e-01
3.856613102595797260e-01
3.856613102595797260e-01
9.147095179233621920e-02
9.147095179233621920e-02
9.147095179233621920e-02
6.823238566131025751e-01
6.823238566131025751e-01
3.881334981458590683e-01
3.881334981458590683e-01
6.823238566131025751e-01
3.893695920889987394e-01
3.893695920889987394e-01
3.893695920889987394e-01
6.823238566131025751e-01
6.823238566131025751e-01
3.906056860321384661e-01
3.906056860321384661e-01
3.906056860321384661e-01
3.906056860321384661e-01
6.823238566131025751e-01
6.823238566131025751e-01
3.906056860321384661e-01
3.906056860321384661e-01
3.906056860321384661e-01
3.906056860321384661e-01
3.906056860321384661e-01
3.906056860321384661e-01
3.906056860321384661e-01
3.906056860321384661e-01
3.906056860321384661e-01
3.906056860321384661e-01
6.860321384425216440e-01
9.888751545117428765e-02
9.888751545117428765e-02
3.906056860321384661e-01
3.906056860321384661e-01
6.798516687268232328e-01
3.893695920889987394e-01
3.893695920889987394e-01
6.798516687268232328e-01
6.798516687268232328e-01
3.881334981458590683e-01
3.868974042027193971e-01
6.761433868974041639e-01
6.711990111248454793e-01
6.687268232385661371e-01
3.794808405438813148e-01
6.637824474660074525e-01
6.625463535228677259e-01
6.650185414091470681e-01
6.674907292954264104e-01
3.819530284301607126e-01
9.641532756489493150e-02
3.856613102595797260e-01
9.888751545117428765e-02
3.881334981458590683e-01
3.881334981458590683e-01
6.773794808405438905e-01
1.038318912237330000e-01
3.918417799752781372e-01
3.943139678615574795e-01
3.943139678615574795e-01
3.943139678615574795e-01
3.943139678615574795e-01
3.943139678615574795e-01
1.063040791100123561e-01
1.063040791100123561e-01
1.063040791100123561e-01
1.063040791100123561e-01
1.063040791100123561e-01
1.063040791100123561e-01
6.860321384425216440e-01
3.955500618046971506e-01
1.161928306551297946e-01
1.211372064276885069e-01
6.328800988875153966e-01
1.149567367119901096e-01
5.463535228677379729e-01
5.302843016069220816e-01
5.265760197775031237e-01
5.525339925834363841e-01
5.451174289245982463e-01
1.063040791100123561e-01
1.087762669962917123e-01
4.054388133498145752e-01
6.835599505562423017e-01
6.835599505562423017e-01
3.967861557478368217e-01
3.967861557478368217e-01
6.773794808405438905e-01
1.137206427688504384e-01
3.955500618046971506e-01
3.955500618046971506e-01
1.112484548825710823e-01
1.112484548825710823e-01
1.112484548825710823e-01
3.943139678615574795e-01
3.943139678615574795e-01
6.749072929542645483e-01
3.918417799752781372e-01
1.087762669962917123e-01
1.087762669962917123e-01
6.749072929542645483e-01
3.906056860321384661e-01
1.063040791100123561e-01
1.063040791100123561e-01
3.893695920889987394e-01
6.749072929542645483e-01
6.711990111248454793e-01
6.711990111248454793e-01
1.025957972805933288e-01
3.831891223733003837e-01
1.013597033374536438e-01
1.001236093943139727e-01
9.765142150803461651e-02
3.770086526576019725e-01
6.551297898640296991e-01
6.514215080346106301e-01
6.477132262051915612e-01
8.405438813349815075e-02
6.390605686032138077e-01
6.365883807169344655e-01
6.353522867737948499e-01
3.535228677379481099e-01
3.535228677379481099e-01
3.535228677379481099e-01
3.535228677379481099e-01
6.353522867737948499e-01
6.353522867737948499e-01
6.378244746600741921e-01
3.646477132262052057e-01
