3.830455259026687709e-01
3.830455259026687709e-01
3.812106261085853043e-01
3.793757263145018377e-01
3.775408265204183711e-01
3.757059267263348490e-01
3.738710269322513824e-01
3.720361271381679158e-01
3.702012273440845047e-01
3.683663275500010381e-01
3.665314277559175715e-01
3.646965279618341049e-01
3.628616281677506383e-01
3.610267283736671162e-01
3.591918285795836496e-01
3.573569287855001830e-01
3.555220289914167164e-01
3.536871291973333054e-01
3.518522294032498388e-01
3.500173296091663722e-01
3.481824298150829056e-01
3.463475300209993835e-01
3.445126302269159169e-01
3.426777304328324503e-01
3.408428306387489837e-01
3.390079308446655726e-01
3.371730310505821060e-01
3.353381312564986394e-01
3.335032314624151173e-01
3.316683316683316507e-01
3.298334318742481841e-01
3.279985320801647175e-01
3.261636322860812509e-01
3.243287324919977843e-01
3.224938326979143732e-01
3.206589329038309066e-01
3.188240331097474400e-01
3.169891333156639179e-01
3.151542335215804513e-01
3.133193337274969847e-01
3.114844339334135181e-01
3.096495341393300516e-01
3.078146343452466405e-01
3.059797345511631739e-01
3.041448347570795963e-01
3.023099349629961852e-01
3.004750351689127186e-01
2.986401353748292520e-01
2.968052355807457854e-01
2.949703357866623188e-01
2.931354359925789077e-01
2.913005361984954411e-01
2.894656364044118635e-01
2.876307366103284524e-01
2.857958368162449858e-01
2.839609370221615192e-01
2.821260372280780526e-01
2.802911374339945860e-01
2.784562376399111194e-01
2.766213378458275973e-01
2.747864380517441307e-01
2.729515382576606641e-01
2.711166384635772530e-01
2.692817386694937865e-01
2.674468388754103199e-01
2.656119390813268533e-01
2.637770392872433867e-01
2.619421394931599756e-01
2.601072396990763980e-01
2.582723399049929314e-01
2.564374401109095203e-01
2.546025403168260537e-01
2.527676405227425871e-01
2.509327407286591205e-01
2.490978409345755706e-01
2.472629411404921318e-01
2.454280413464086652e-01
2.435931415523252264e-01
2.417582417582417598e-01
1.962323390894819553e-01
1.962323390894819553e-01
1.915227629513343854e-01
0.000000000000000000e+00
0.000000000000000000e+00
0.000000000000000000e+00
0.000000000000000000e+00
0.000000000000000000e+00
0.000000000000000000e+00
4.395604395604395531e-01
0.000000000000000000e+00
0.000000000000000000e+00
0.000000000000000000e+00
0.000000000000000000e+00
0.000000000000000000e+00
0.000000000000000000e+00
4.395604395604395531e-01
0.000000000000000000e+00
0.000000000000000000e+00
0.000000000000000000e+00
0.000000000000000000e+00
0.000000000000000000e+00
0.000000000000000000e+00
0.000000000000000000e+00
4.395604395604395531e-01
0.000000000000000000e+00
0.000000000000000000e+00
0.000000000000000000e+00
0.000000000000000000e+00
0.000000000000000000e+00
0.000000000000000000e+00
0.000000000000000000e+00
4.395604395604395531e-01
0.000000000000000000e+00
0.000000000000000000e+00
0.000000000000000000e+00
0.000000000000000000e+00
0.000000000000000000e+00
0.000000000000000000e+00
1.930926216640502235e-01
1.993720565149136592e-01
1.993720565149136592e-01
2.433281004709576256e-01
3.767660910518053630e-01
3.767660910518053630e-01
3.783359497645211733e-01
2.558869701726844692e-01
2.197802197802197766e-01
1.852433281004709498e-01
1.161695447409733101e-01
8.320251177394034914e-02
7.535321821036106149e-02
1.915227629513343854e-01
2.323390894819466201e-01
3.547880690737833520e-01
2.857142857142856984e-01
2.825745682888540222e-01
2.747252747252747485e-01
2.684458398744112850e-01
2.668759811616954747e-01
2.684458398744112850e-01
2.668759811616954747e-01
2.668759811616954747e-01
2.668759811616954747e-01
2.668759811616954747e-01
2.668759811616954747e-01
2.668759811616954747e-01
2.668759811616954747e-01
2.668759811616954747e-01
2.668759811616954747e-01
2.668759811616954747e-01
2.668759811616954747e-01
2.668759811616954747e-01
2.653061224489796088e-01
2.653061224489796088e-01
2.637362637362637430e-01
2.637362637362637430e-01
2.637362637362637430e-01
2.621664050235478771e-01
2.590266875981161454e-01
2.558869701726844692e-01
2.543171114599686033e-01
2.511773940345368716e-01
2.480376766091051677e-01
2.480376766091051677e-01
2.464678178963893296e-01
2.464678178963893296e-01
2.354788069073783241e-01
2.339089481946624860e-01
2.291993720565149162e-01
2.260596546310832122e-01
2.244897959183673464e-01
2.197802197802197766e-01
2.166405023547880726e-01
2.135007849293563686e-01
2.119309262166405028e-01
2.103610675039246369e-01
2.103610675039246369e-01
2.087912087912087988e-01
2.135007849293563686e-01
2.197802197802197766e-01
2.260596546310832122e-01
2.386185243328100558e-01
2.433281004709576256e-01
2.464678178963893296e-01
2.480376766091051677e-01
2.511773940345368716e-01
2.527472527472527375e-01
2.574568288854003351e-01
2.590266875981161454e-01
2.605965463108320113e-01
2.621664050235478771e-01
2.653061224489796088e-01
2.653061224489796088e-01
2.653061224489796088e-01
2.653061224489796088e-01
2.653061224489796088e-01
2.653061224489796088e-01
2.621664050235478771e-01
2.621664050235478771e-01
2.653061224489796088e-01
2.700156985871271509e-01
2.684458398744112850e-01
2.684458398744112850e-01
2.668759811616954747e-01
2.668759811616954747e-01
2.653061224489796088e-01
2.653061224489796088e-01
2.668759811616954747e-01
2.700156985871271509e-01
2.684458398744112850e-01
2.668759811616954747e-01
2.668759811616954747e-01
2.668759811616954747e-01
2.637362637362637430e-01
2.637362637362637430e-01
2.605965463108320113e-01
2.590266875981161454e-01
2.605965463108320113e-01
2.621664050235478771e-01
2.637362637362637430e-01
2.637362637362637430e-01
2.637362637362637430e-01
2.621664050235478771e-01
2.621664050235478771e-01
2.605965463108320113e-01
2.605965463108320113e-01
2.590266875981161454e-01
2.590266875981161454e-01
2.590266875981161454e-01
2.605965463108320113e-01
2.605965463108320113e-01
2.605965463108320113e-01
2.590266875981161454e-01
2.637362637362637430e-01
2.668759811616954747e-01
2.715855572998430167e-01
2.700156985871271509e-01
2.684458398744112850e-01
2.668759811616954747e-01
2.653061224489796088e-01
2.653061224489796088e-01
2.653061224489796088e-01
2.637362637362637430e-01
2.637362637362637430e-01
2.637362637362637430e-01
2.637362637362637430e-01
2.621664050235478771e-01
2.621664050235478771e-01
2.605965463108320113e-01
2.605965463108320113e-01
2.574568288854003351e-01
2.558869701726844692e-01
2.543171114599686033e-01
2.511773940345368716e-01
2.480376766091051677e-01
2.464678178963893296e-01
2.464678178963893296e-01
2.386185243328100558e-01
2.370486656200941900e-01
2.386185243328100558e-01
2.543171114599686033e-01
2.543171114599686033e-01
2.605965463108320113e-01
2.590266875981161454e-01
2.621664050235478771e-01
2.637362637362637430e-01
2.668759811616954747e-01
2.684458398744112850e-01
2.700156985871271509e-01
2.700156985871271509e-01
2.715855572998430167e-01
2.715855572998430167e-01
2.700156985871271509e-01
2.700156985871271509e-01
2.700156985871271509e-01
2.700156985871271509e-01
2.700156985871271509e-01
2.684458398744112850e-01
2.700156985871271509e-01
2.700156985871271509e-01
2.700156985871271509e-01
2.715855572998430167e-01
2.715855572998430167e-01
2.747252747252747485e-01
2.621664050235478771e-01
2.244897959183673464e-01
1.899529042386185196e-01
1.255886970172684358e-01
9.105180533751962291e-02
5.337519623233909494e-01
1.616954474097331285e-01
1.930926216640502235e-01
2.480376766091051677e-01
2.841444270015698326e-01
2.825745682888540222e-01
2.762951334379905588e-01
2.684458398744112850e-01
2.637362637362637430e-01
2.637362637362637430e-01
2.653061224489796088e-01
2.700156985871271509e-01
2.715855572998430167e-01
2.731554160125588826e-01
2.700156985871271509e-01
2.700156985871271509e-01
2.668759811616954747e-01
2.653061224489796088e-01
2.637362637362637430e-01
2.637362637362637430e-01
2.637362637362637430e-01
2.621664050235478771e-01
2.605965463108320113e-01
2.605965463108320113e-01
2.590266875981161454e-01
2.590266875981161454e-01
2.590266875981161454e-01
2.574568288854003351e-01
2.558869701726844692e-01
2.543171114599686033e-01
2.543171114599686033e-01
2.511773940345368716e-01
2.511773940345368716e-01
2.480376766091051677e-01
2.464678178963893296e-01
2.417582417582417598e-01
2.401883830455258939e-01
2.354788069073783241e-01
2.323390894819466201e-01
2.260596546310832122e-01
2.213500784929356424e-01
2.197802197802197766e-01
2.150706436420722067e-01
2.135007849293563686e-01
2.103610675039246369e-01
2.072213500784929330e-01
2.056514913657770671e-01
2.087912087912087988e-01
2.135007849293563686e-01
2.213500784929356424e-01
2.260596546310832122e-01
2.323390894819466201e-01
2.354788069073783241e-01
2.464678178963893296e-01
2.480376766091051677e-01
2.496075353218210335e-01
2.511773940345368716e-01
2.527472527472527375e-01
2.527472527472527375e-01
2.511773940345368716e-01
2.558869701726844692e-01
2.574568288854003351e-01
2.621664050235478771e-01
2.605965463108320113e-01
2.605965463108320113e-01
2.605965463108320113e-01
2.598116169544740783e-01
2.590266875981161454e-01
2.590266875981161454e-01
2.590266875981161454e-01
2.590266875981161454e-01
2.574568288854003351e-01
2.574568288854003351e-01
2.574568288854003351e-01
2.574568288854003351e-01
2.558869701726844692e-01
2.590266875981161454e-01
2.590266875981161454e-01
2.637362637362637430e-01
2.621664050235478771e-01
2.605965463108320113e-01
2.590266875981161454e-01
2.574568288854003351e-01
2.574568288854003351e-01
2.558869701726844692e-01
2.543171114599686033e-01
2.543171114599686033e-01
2.527472527472527375e-01
2.527472527472527375e-01
2.511773940345368716e-01
2.496075353218210335e-01
2.558869701726844692e-01
2.558869701726844692e-01
2.590266875981161454e-01
2.511773940345368716e-01
2.511773940345368716e-01
2.543171114599686033e-01
2.558869701726844692e-01
2.558869701726844692e-01
2.543171114599686033e-01
2.543171114599686033e-01
2.543171114599686033e-01
2.527472527472527375e-01
2.527472527472527375e-01
2.527472527472527375e-01
2.527472527472527375e-01
2.527472527472527375e-01
2.543171114599686033e-01
2.543171114599686033e-01
2.558869701726844692e-01
2.543171114599686033e-01
2.543171114599686033e-01
2.543171114599686033e-01
2.543171114599686033e-01
2.543171114599686033e-01
2.543171114599686033e-01
2.527472527472527375e-01
2.527472527472527375e-01
2.527472527472527375e-01
2.527472527472527375e-01
2.527472527472527375e-01
2.527472527472527375e-01
2.527472527472527375e-01
2.511773940345368716e-01
2.511773940345368716e-01
2.496075353218210335e-01
2.448979591836734637e-01
2.401883830455258939e-01
2.354788069073783241e-01
2.339089481946624860e-01
2.339089481946624860e-01
2.323390894819466201e-01
2.323390894819466201e-01
2.323390894819466201e-01
2.354788069073783241e-01
2.370486656200941900e-01
2.370486656200941900e-01
2.417582417582417598e-01
2.401883830455258939e-01
2.386185243328100558e-01
2.433281004709576256e-01
2.480376766091051677e-01
2.480376766091051677e-01
2.511773940345368716e-01
2.511773940345368716e-01
2.527472527472527375e-01
2.543171114599686033e-01
2.558869701726844692e-01
2.574568288854003351e-01
2.574568288854003351e-01
2.574568288854003351e-01
2.574568288854003351e-01
2.558869701726844692e-01
2.558869701726844692e-01
2.558869701726844692e-01
2.543171114599686033e-01
2.527472527472527375e-01
2.527472527472527375e-01
2.527472527472527375e-01
2.558869701726844692e-01
2.417582417582417598e-01
2.087912087912087988e-01
1.789638932496075419e-01
1.224489795918367319e-01
8.320251177394034914e-02
5.651491365777080306e-02
1.412872841444270111e-01
1.711145996860282681e-01
2.197802197802197766e-01
2.605965463108320113e-01
2.668759811616954747e-01
2.605965463108320113e-01
2.558869701726844692e-01
2.496075353218210335e-01
2.496075353218210335e-01
2.511773940345368716e-01
2.511773940345368716e-01
2.511773940345368716e-01
2.496075353218210335e-01
2.496075353218210335e-01
2.496075353218210335e-01
2.480376766091051677e-01
2.480376766091051677e-01
2.496075353218210335e-01
2.503924646781789387e-01
2.511773940345368716e-01
2.527472527472527375e-01
2.543171114599686033e-01
2.527472527472527375e-01
2.527472527472527375e-01
2.511773940345368716e-01
2.511773940345368716e-01
2.496075353218210335e-01
2.480376766091051677e-01
2.480376766091051677e-01
2.433281004709576256e-01
2.417582417582417598e-01
2.401883830455258939e-01
2.370486656200941900e-01
2.370486656200941900e-01
2.339089481946624860e-01
2.307692307692307820e-01
2.260596546310832122e-01
2.182103610675039385e-01
2.119309262166405028e-01
2.103610675039246369e-01
2.056514913657770671e-01
2.025117739403453632e-01
1.993720565149136592e-01
1.978021978021977934e-01
1.962323390894819553e-01
1.930926216640502235e-01
1.930926216640502235e-01
1.993720565149136592e-01
2.040816326530612290e-01
2.103610675039246369e-01
2.166405023547880726e-01
2.229199372056514805e-01
2.276295133437990503e-01
2.323390894819466201e-01
2.354788069073783241e-01
2.401883830455258939e-01
2.417582417582417598e-01
2.433281004709576256e-01
2.433281004709576256e-01
2.464678178963893296e-01
2.480376766091051677e-01
2.480376766091051677e-01
2.480376766091051677e-01
2.464678178963893296e-01
2.480376766091051677e-01
2.480376766091051677e-01
2.511773940345368716e-01
2.511773940345368716e-01
2.511773940345368716e-01
2.511773940345368716e-01
2.511773940345368716e-01
2.511773940345368716e-01
2.511773940345368716e-01
2.511773940345368716e-01
2.511773940345368716e-01
2.511773940345368716e-01
2.511773940345368716e-01
2.496075353218210335e-01
2.480376766091051677e-01
2.480376766091051677e-01
2.480376766091051677e-01
2.480376766091051677e-01
2.464678178963893296e-01
2.464678178963893296e-01
2.464678178963893296e-01
2.464678178963893296e-01
2.464678178963893296e-01
2.464678178963893296e-01
2.480376766091051677e-01
2.496075353218210335e-01
2.496075353218210335e-01
2.496075353218210335e-01
2.496075353218210335e-01
2.496075353218210335e-01
2.480376766091051677e-01
2.480376766091051677e-01
2.496075353218210335e-01
2.480376766091051677e-01
2.464678178963893296e-01
2.464678178963893296e-01
2.480376766091051677e-01
2.480376766091051677e-01
2.480376766091051677e-01
2.480376766091051677e-01
2.480376766091051677e-01
2.496075353218210335e-01
2.480376766091051677e-01
2.480376766091051677e-01
2.480376766091051677e-01
2.496075353218210335e-01
2.496075353218210335e-01
2.511773940345368716e-01
2.511773940345368716e-01
2.511773940345368716e-01
2.511773940345368716e-01
2.527472527472527375e-01
2.527472527472527375e-01
2.511773940345368716e-01
2.511773940345368716e-01
2.496075353218210335e-01
2.480376766091051677e-01
2.480376766091051677e-01
2.480376766091051677e-01
2.480376766091051677e-01
2.496075353218210335e-01
2.527472527472527375e-01
2.558869701726844692e-01
2.543171114599686033e-01
2.543171114599686033e-01
2.527472527472527375e-01
2.511773940345368716e-01
2.496075353218210335e-01
2.496075353218210335e-01
2.480376766091051677e-01
2.480376766091051677e-01
2.480376766091051677e-01
2.511773940345368716e-01
2.543171114599686033e-01
2.543171114599686033e-01
2.511773940345368716e-01
2.480376766091051677e-01
2.433281004709576256e-01
2.401883830455258939e-01
2.354788069073783241e-01
2.323390894819466201e-01
2.323390894819466201e-01
2.323390894819466201e-01
2.339089481946624860e-01
2.354788069073783241e-01
2.354788069073783241e-01
2.370486656200941900e-01
2.370486656200941900e-01
2.370486656200941900e-01
2.417582417582417598e-01
2.417582417582417598e-01
2.417582417582417598e-01
2.417582417582417598e-01
2.417582417582417598e-01
2.417582417582417598e-01
3.971742543171114526e-01
3.924646781789639105e-01
3.924646781789639105e-01
3.830455259026687709e-01
3.830455259026687709e-01
3.767660910518053630e-01
3.704866562009418995e-01
3.704866562009418995e-01
3.704866562009418995e-01
3.830455259026687709e-01
3.720565149136577654e-01
3.877551020408163129e-01
3.877551020408163129e-01
3.908948194662480446e-01
2.543171114599686033e-01
2.621664050235478771e-01
2.653061224489796088e-01
2.700156985871271509e-01
3.485086342229199441e-01
3.610675039246467599e-01
9.780219780219779890e-01
9.591836734693877098e-01
6.703296703296702796e-01
9.497645211930926257e-01
4.144427001569858660e-01
2.401883830455258939e-01
2.496075353218210335e-01
2.668759811616954747e-01
3.908948194662480446e-01
3.830455259026687709e-01
3.767660910518053630e-01
3.704866562009418995e-01
3.610675039246467599e-01
3.547880690737833520e-01
3.516483516483516758e-01
3.485086342229199441e-01
2.527472527472527375e-01
2.527472527472527375e-01
2.511773940345368716e-01
3.485086342229199441e-01
3.783359497645211733e-01
3.783359497645211733e-01
3.783359497645211733e-01
2.511773940345368716e-01
3.296703296703296648e-01
3.312401883830455307e-01
3.312401883830455307e-01
3.296703296703296648e-01
3.296703296703296648e-01
4.081632653061224580e-01
4.081632653061224580e-01
3.281004709576137990e-01
2.511773940345368716e-01
3.296703296703296648e-01
2.448979591836734637e-01
2.401883830455258939e-01
2.386185243328100558e-01
2.370486656200941900e-01
2.339089481946624860e-01
2.323390894819466201e-01
2.276295133437990503e-01
2.244897959183673464e-01
2.213500784929356424e-01
2.182103610675039385e-01
2.166405023547880726e-01
2.150706436420722067e-01
2.135007849293563686e-01
2.135007849293563686e-01
2.150706436420722067e-01
2.197802197802197766e-01
2.260596546310832122e-01
2.307692307692307820e-01
2.339089481946624860e-01
2.401883830455258939e-01
2.433281004709576256e-01
2.464678178963893296e-01
2.480376766091051677e-01
2.496075353218210335e-01
2.511773940345368716e-01
2.511773940345368716e-01
2.511773940345368716e-01
2.511773940345368716e-01
2.527472527472527375e-01
2.527472527472527375e-01
2.511773940345368716e-01
2.511773940345368716e-01
2.511773940345368716e-01
2.511773940345368716e-01
2.511773940345368716e-01
2.527472527472527375e-01
2.527472527472527375e-01
2.527472527472527375e-01
2.511773940345368716e-01
2.496075353218210335e-01
2.527472527472527375e-01
2.527472527472527375e-01
2.527472527472527375e-01
2.527472527472527375e-01
2.527472527472527375e-01
2.527472527472527375e-01
2.511773940345368716e-01
2.511773940345368716e-01
2.511773940345368716e-01
2.496075353218210335e-01
2.496075353218210335e-01
2.480376766091051677e-01
2.480376766091051677e-01
2.464678178963893296e-01
2.464678178963893296e-01
2.464678178963893296e-01
2.464678178963893296e-01
2.480376766091051677e-01
2.480376766091051677e-01
2.480376766091051677e-01
2.480376766091051677e-01
2.480376766091051677e-01
2.480376766091051677e-01
2.480376766091051677e-01
2.496075353218210335e-01
2.496075353218210335e-01
2.496075353218210335e-01
2.496075353218210335e-01
2.496075353218210335e-01
2.496075353218210335e-01
2.511773940345368716e-01
2.527472527472527375e-01
2.527472527472527375e-01
2.527472527472527375e-01
2.527472527472527375e-01
2.527472527472527375e-01
2.527472527472527375e-01
2.527472527472527375e-01
2.527472527472527375e-01
2.511773940345368716e-01
2.511773940345368716e-01
2.503924646781789387e-01
2.496075353218210335e-01
2.496075353218210335e-01
2.496075353218210335e-01
2.496075353218210335e-01
2.496075353218210335e-01
2.496075353218210335e-01
2.511773940345368716e-01
2.511773940345368716e-01
2.480376766091051677e-01
2.480376766091051677e-01
2.496075353218210335e-01
2.511773940345368716e-01
2.511773940345368716e-01
2.496075353218210335e-01
2.480376766091051677e-01
2.480376766091051677e-01
2.480376766091051677e-01
2.480376766091051677e-01
2.464678178963893296e-01
2.464678178963893296e-01
2.464678178963893296e-01
2.464678178963893296e-01
2.464678178963893296e-01
2.480376766091051677e-01
2.480376766091051677e-01
2.464678178963893296e-01
2.464678178963893296e-01
2.464678178963893296e-01
2.464678178963893296e-01
2.464678178963893296e-01
2.464678178963893296e-01
2.480376766091051677e-01
2.480376766091051677e-01
2.480376766091051677e-01
2.496075353218210335e-01
2.480376766091051677e-01
2.480376766091051677e-01
2.464678178963893296e-01
2.464678178963893296e-01
2.464678178963893296e-01
2.464678178963893296e-01
2.464678178963893296e-01
2.464678178963893296e-01
2.480376766091051677e-01
2.480376766091051677e-01
2.417582417582417598e-01
2.401883830455258939e-01
2.417582417582417598e-01
2.448979591836734637e-01
2.417582417582417598e-01
2.339089481946624860e-01
2.307692307692307820e-01
2.291993720565149162e-01
2.307692307692307820e-01
2.323390894819466201e-01
2.354788069073783241e-01
2.354788069073783241e-01
2.370486656200941900e-01
2.401883830455258939e-01
2.401883830455258939e-01
2.386185243328100558e-01
2.354788069073783241e-01
2.354788069073783241e-01
2.401883830455258939e-01
2.433281004709576256e-01
2.464678178963893296e-01
2.480376766091051677e-01
2.480376766091051677e-01
2.496075353218210335e-01
2.511773940345368716e-01
2.527472527472527375e-01
2.496075353218210335e-01
2.464678178963893296e-01
2.417582417582417598e-01
2.433281004709576256e-01
2.464678178963893296e-01
2.448979591836734637e-01
2.448979591836734637e-01
2.464678178963893296e-01
2.511773940345368716e-01
2.527472527472527375e-01
6.389324960753531846e-01
9.858712715855573183e-01
9.780219780219779890e-01
9.607535321821035756e-01
9.670329670329670391e-01
2.480376766091051677e-01
2.150706436420722067e-01
2.323390894819466201e-01
2.448979591836734637e-01
2.527472527472527375e-01
2.511773940345368716e-01
2.448979591836734637e-01
2.417582417582417598e-01
2.433281004709576256e-01
2.417582417582417598e-01
2.417582417582417598e-01
2.417582417582417598e-01
2.417582417582417598e-01
2.417582417582417598e-01
2.386185243328100558e-01
2.354788069073783241e-01
2.354788069073783241e-01
2.354788069073783241e-01
2.354788069073783241e-01
2.354788069073783241e-01
2.354788069073783241e-01
2.354788069073783241e-01
2.354788069073783241e-01
2.354788069073783241e-01
2.354788069073783241e-01
2.354788069073783241e-01
2.370486656200941900e-01
2.370486656200941900e-01
2.339089481946624860e-01
2.339089481946624860e-01
2.307692307692307820e-01
2.299843014128728491e-01
2.291993720565149162e-01
2.244897959183673464e-01
2.213500784929356424e-01
2.166405023547880726e-01
2.166405023547880726e-01
2.135007849293563686e-01
2.103610675039246369e-01
2.103610675039246369e-01
2.087912087912087988e-01
2.072213500784929330e-01
2.072213500784929330e-01
2.087912087912087988e-01
2.087912087912087988e-01
2.103610675039246369e-01
2.135007849293563686e-01
2.150706436420722067e-01
2.197802197802197766e-01
2.244897959183673464e-01
2.276295133437990503e-01
2.307692307692307820e-01
2.354788069073783241e-01
2.370486656200941900e-01
2.370486656200941900e-01
2.401883830455258939e-01
2.401883830455258939e-01
2.401883830455258939e-01
2.401883830455258939e-01
2.401883830455258939e-01
2.417582417582417598e-01
2.386185243328100558e-01
2.354788069073783241e-01
2.339089481946624860e-01
2.354788069073783241e-01
2.354788069073783241e-01
2.354788069073783241e-01
2.354788069073783241e-01
2.354788069073783241e-01
2.354788069073783241e-01
2.339089481946624860e-01
2.354788069073783241e-01
2.370486656200941900e-01
2.370486656200941900e-01
2.370486656200941900e-01
2.370486656200941900e-01
2.386185243328100558e-01
2.401883830455258939e-01
2.401883830455258939e-01
2.417582417582417598e-01
2.417582417582417598e-01
2.417582417582417598e-01
2.433281004709576256e-01
2.401883830455258939e-01
2.401883830455258939e-01
2.370486656200941900e-01
2.370486656200941900e-01
2.370486656200941900e-01
2.370486656200941900e-01
2.370486656200941900e-01
2.370486656200941900e-01
2.370486656200941900e-01
2.401883830455258939e-01
2.401883830455258939e-01
2.401883830455258939e-01
2.401883830455258939e-01
2.401883830455258939e-01
2.401883830455258939e-01
2.401883830455258939e-01
2.417582417582417598e-01
2.417582417582417598e-01
2.417582417582417598e-01
2.401883830455258939e-01
2.417582417582417598e-01
2.417582417582417598e-01
2.417582417582417598e-01
2.417582417582417598e-01
2.417582417582417598e-01
2.401883830455258939e-01
2.386185243328100558e-01
2.370486656200941900e-01
2.370486656200941900e-01
2.370486656200941900e-01
2.370486656200941900e-01
2.386185243328100558e-01
2.417582417582417598e-01
2.417582417582417598e-01
2.401883830455258939e-01
2.401883830455258939e-01
2.401883830455258939e-01
2.370486656200941900e-01
2.354788069073783241e-01
2.354788069073783241e-01
2.370486656200941900e-01
2.370486656200941900e-01
2.370486656200941900e-01
2.401883830455258939e-01
2.417582417582417598e-01
2.386185243328100558e-01
2.354788069073783241e-01
2.354788069073783241e-01
2.370486656200941900e-01
2.370486656200941900e-01
2.370486656200941900e-01
2.386185243328100558e-01
2.401883830455258939e-01
2.401883830455258939e-01
2.401883830455258939e-01
2.401883830455258939e-01
2.386185243328100558e-01
2.386185243328100558e-01
2.401883830455258939e-01
2.417582417582417598e-01
2.401883830455258939e-01
2.370486656200941900e-01
2.339089481946624860e-01
2.370486656200941900e-01
2.417582417582417598e-01
2.464678178963893296e-01
2.464678178963893296e-01
2.448979591836734637e-01
2.433281004709576256e-01
2.386185243328100558e-01
2.354788069073783241e-01
2.354788069073783241e-01
2.354788069073783241e-01
2.354788069073783241e-01
2.354788069073783241e-01
2.354788069073783241e-01
2.354788069073783241e-01
2.370486656200941900e-01
2.417582417582417598e-01
2.401883830455258939e-01
2.307692307692307820e-01
2.276295133437990503e-01
2.229199372056514805e-01
2.244897959183673464e-01
2.260596546310832122e-01
2.276295133437990503e-01
2.323390894819466201e-01
2.354788069073783241e-01
2.354788069073783241e-01
2.354788069073783241e-01
2.370486656200941900e-01
2.370486656200941900e-01
2.370486656200941900e-01
2.401883830455258939e-01
2.417582417582417598e-01
2.417582417582417598e-01
2.386185243328100558e-01
2.386185243328100558e-01
2.354788069073783241e-01
2.370486656200941900e-01
2.370486656200941900e-01
2.370486656200941900e-01
2.370486656200941900e-01
2.370486656200941900e-01
2.370486656200941900e-01
2.370486656200941900e-01
2.386185243328100558e-01
2.401883830455258939e-01
2.417582417582417598e-01
2.433281004709576256e-01
2.401883830455258939e-01
2.448979591836734637e-01
1.000000000000000000e+00
9.968602825745682683e-01
9.874411302982731842e-01
2.260596546310832122e-01
2.072213500784929330e-01
2.276295133437990503e-01
2.339089481946624860e-01
2.401883830455258939e-01
2.370486656200941900e-01
2.370486656200941900e-01
2.370486656200941900e-01
2.370486656200941900e-01
2.370486656200941900e-01
2.370486656200941900e-01
2.370486656200941900e-01
2.370486656200941900e-01
2.339089481946624860e-01
2.323390894819466201e-01
2.307692307692307820e-01
2.307692307692307820e-01
2.291993720565149162e-01
2.291993720565149162e-01
2.291993720565149162e-01
2.276295133437990503e-01
2.276295133437990503e-01
2.276295133437990503e-01
2.276295133437990503e-01
2.276295133437990503e-01
2.276295133437990503e-01
2.260596546310832122e-01
2.260596546310832122e-01
2.260596546310832122e-01
2.260596546310832122e-01
2.244897959183673464e-01
2.229199372056514805e-01
2.197802197802197766e-01
2.182103610675039385e-01
2.135007849293563686e-01
2.135007849293563686e-01
2.103610675039246369e-01
2.087912087912087988e-01
2.072213500784929330e-01
2.040816326530612290e-01
2.009419152276295251e-01
2.009419152276295251e-01
1.978021978021977934e-01
1.978021978021977934e-01
1.962323390894819553e-01
1.978021978021977934e-01
2.009419152276295251e-01
2.056514913657770671e-01
2.087912087912087988e-01
2.119309262166405028e-01
2.166405023547880726e-01
2.197802197802197766e-01
2.213500784929356424e-01
2.244897959183673464e-01
2.276295133437990503e-01
2.291993720565149162e-01
2.291993720565149162e-01
2.323390894819466201e-01
2.323390894819466201e-01
2.339089481946624860e-01
2.307692307692307820e-01
2.291993720565149162e-01
2.276295133437990503e-01
2.276295133437990503e-01
2.291993720565149162e-01
2.291993720565149162e-01
2.417582417582417598e-01
2.417582417582417598e-01
2.417582417582417598e-01
2.417582417582417598e-01
2.448979591836734637e-01
2.464678178963893296e-01
3.532182103610674861e-01
3.579277864992150837e-01
3.657770800627943575e-01
3.736263736263736313e-01
3.814756671899529050e-01
3.893249607535321788e-01
3.987441130298273184e-01
4.034536891679748605e-01
4.065934065934065922e-01
4.018838304552590501e-01
3.971742543171114526e-01
3.877551020408163129e-01
3.783359497645211733e-01
3.751962323390894971e-01
3.642072213500784916e-01
3.547880690737833520e-01
3.516483516483516758e-01
2.967032967032967039e-01
2.417582417582417598e-01
2.417582417582417598e-01
3.547880690737833520e-01
3.579277864992150837e-01
3.547880690737833520e-01
3.767660910518053630e-01
3.751962323390894971e-01
3.736263736263736313e-01
3.908948194662480446e-01
3.877551020408163129e-01
3.830455259026687709e-01
3.799058084772370392e-01
3.751962323390894971e-01
3.673469387755102233e-01
3.689167974882260337e-01
3.673469387755102233e-01
3.296703296703296648e-01
2.464678178963893296e-01
2.464678178963893296e-01
2.464678178963893296e-01
2.464678178963893296e-01
2.464678178963893296e-01
2.464678178963893296e-01
2.464678178963893296e-01
2.464678178963893296e-01
2.480376766091051677e-01
2.480376766091051677e-01
2.496075353218210335e-01
2.496075353218210335e-01
2.496075353218210335e-01
2.480376766091051677e-01
2.480376766091051677e-01
2.480376766091051677e-01
2.480376766091051677e-01
2.480376766091051677e-01
2.464678178963893296e-01
2.464678178963893296e-01
2.464678178963893296e-01
2.464678178963893296e-01
2.464678178963893296e-01
2.464678178963893296e-01
2.464678178963893296e-01
2.464678178963893296e-01
2.464678178963893296e-01
2.464678178963893296e-01
2.433281004709576256e-01
2.433281004709576256e-01
2.433281004709576256e-01
2.464678178963893296e-01
2.464678178963893296e-01
2.464678178963893296e-01
2.464678178963893296e-01
2.464678178963893296e-01
2.464678178963893296e-01
2.464678178963893296e-01
2.464678178963893296e-01
2.480376766091051677e-01
2.480376766091051677e-01
2.472527472527472625e-01
2.464678178963893296e-01
2.464678178963893296e-01
2.433281004709576256e-01
2.417582417582417598e-01
2.417582417582417598e-01
2.417582417582417598e-01
2.417582417582417598e-01
2.401883830455258939e-01
2.401883830455258939e-01
2.370486656200941900e-01
2.370486656200941900e-01
2.354788069073783241e-01
2.339089481946624860e-01
2.323390894819466201e-01
2.291993720565149162e-01
2.291993720565149162e-01
2.323390894819466201e-01
2.386185243328100558e-01
2.417582417582417598e-01
2.433281004709576256e-01
2.464678178963893296e-01
2.464678178963893296e-01
2.480376766091051677e-01
2.496075353218210335e-01
2.511773940345368716e-01
2.527472527472527375e-01
2.527472527472527375e-01
2.527472527472527375e-01
2.527472527472527375e-01
2.527472527472527375e-01
2.527472527472527375e-01
2.527472527472527375e-01
2.527472527472527375e-01
2.527472527472527375e-01
2.527472527472527375e-01
2.527472527472527375e-01
2.527472527472527375e-01
2.511773940345368716e-01
2.496075353218210335e-01
2.464678178963893296e-01
2.291993720565149162e-01
1.930926216640502235e-01
1.805337519623233800e-01
2.543171114599686033e-01
3.312401883830455307e-01
4.332810047095761452e-01
5.431711145996860335e-01
6.012558869701727371e-01
5.682888540031396651e-01
5.337519623233909494e-01
4.505494505494505586e-01
4.097331240188383239e-01
3.532182103610674861e-01
3.155416012558869832e-01
2.794348508634222905e-01
2.621664050235478771e-01
2.496075353218210335e-01
2.386185243328100558e-01
2.339089481946624860e-01
2.291993720565149162e-01
2.276295133437990503e-01
2.260596546310832122e-01
2.244897959183673464e-01
2.229199372056514805e-01
2.229199372056514805e-01
2.213500784929356424e-01
2.197802197802197766e-01
2.197802197802197766e-01
2.166405023547880726e-01
2.150706436420722067e-01
2.135007849293563686e-01
2.103610675039246369e-01
2.087912087912087988e-01
2.072213500784929330e-01
2.040816326530612290e-01
2.009419152276295251e-01
1.993720565149136592e-01
1.930926216640502235e-01
1.915227629513343854e-01
1.868131868131868156e-01
1.836734693877551117e-01
1.789638932496075419e-01
1.742543171114599720e-01
1.679748822605965364e-01
1.616954474097331285e-01
1.585557299843014245e-01
1.522762951334379888e-01
1.491365777080062849e-01
1.459968602825745809e-01
1.459968602825745809e-01
1.459968602825745809e-01
1.475667189952904190e-01
1.507064364207221230e-01
1.554160125588696928e-01
1.616954474097331285e-01
1.695447409733124022e-01
1.758241758241758379e-01
1.852433281004709498e-01
1.930926216640502235e-01
1.993720565149136592e-01
2.072213500784929330e-01
2.119309262166405028e-01
2.197802197802197766e-01
2.229199372056514805e-01
2.260596546310832122e-01
2.291993720565149162e-01
2.291993720565149162e-01
2.307692307692307820e-01
2.323390894819466201e-01
2.323390894819466201e-01
2.354788069073783241e-01
2.354788069073783241e-01
2.354788069073783241e-01
2.354788069073783241e-01
2.354788069073783241e-01
2.354788069073783241e-01
2.354788069073783241e-01
2.370486656200941900e-01
2.370486656200941900e-01
2.370486656200941900e-01
2.370486656200941900e-01
2.370486656200941900e-01
2.354788069073783241e-01
2.354788069073783241e-01
2.354788069073783241e-01
2.354788069073783241e-01
2.354788069073783241e-01
2.354788069073783241e-01
2.323390894819466201e-01
2.323390894819466201e-01
2.323390894819466201e-01
2.323390894819466201e-01
2.323390894819466201e-01
2.323390894819466201e-01
2.307692307692307820e-01
2.291993720565149162e-01
2.291993720565149162e-01
2.307692307692307820e-01
2.307692307692307820e-01
2.307692307692307820e-01
2.323390894819466201e-01
2.323390894819466201e-01
2.339089481946624860e-01
2.339089481946624860e-01
2.354788069073783241e-01
2.354788069073783241e-01
2.354788069073783241e-01
2.370486656200941900e-01
2.370486656200941900e-01
2.370486656200941900e-01
2.370486656200941900e-01
2.370486656200941900e-01
2.370486656200941900e-01
2.370486656200941900e-01
2.401883830455258939e-01
2.401883830455258939e-01
2.386185243328100558e-01
2.370486656200941900e-01
2.354788069073783241e-01
2.354788069073783241e-01
2.370486656200941900e-01
2.370486656200941900e-01
2.370486656200941900e-01
2.370486656200941900e-01
2.370486656200941900e-01
2.370486656200941900e-01
2.370486656200941900e-01
2.386185243328100558e-01
2.401883830455258939e-01
2.401883830455258939e-01
2.370486656200941900e-01
2.370486656200941900e-01
2.370486656200941900e-01
2.370486656200941900e-01
2.370486656200941900e-01
2.370486656200941900e-01
2.370486656200941900e-01
2.370486656200941900e-01
2.370486656200941900e-01
2.370486656200941900e-01
2.370486656200941900e-01
2.370486656200941900e-01
2.370486656200941900e-01
2.370486656200941900e-01
2.370486656200941900e-01
2.370486656200941900e-01
2.370486656200941900e-01
2.370486656200941900e-01
2.370486656200941900e-01
2.370486656200941900e-01
2.370486656200941900e-01
2.370486656200941900e-01
2.370486656200941900e-01
2.401883830455258939e-01
2.401883830455258939e-01
2.401883830455258939e-01
2.407116692830978122e-01
2.412349555206698415e-01
2.417582417582417598e-01
2.417582417582417598e-01
2.433281004709576256e-01
2.433281004709576256e-01
2.433281004709576256e-01
2.417582417582417598e-01
2.386185243328100558e-01
2.354788069073783241e-01
2.354788069073783241e-01
2.339089481946624860e-01
2.323390894819466201e-01
2.291993720565149162e-01
2.276295133437990503e-01
2.244897959183673464e-01
2.244897959183673464e-01
2.276295133437990503e-01
2.323390894819466201e-01
2.354788069073783241e-01
2.370486656200941900e-01
2.370486656200941900e-01
2.370486656200941900e-01
2.401883830455258939e-01
2.401883830455258939e-01
2.417582417582417598e-01
2.448979591836734637e-01
2.464678178963893296e-01
2.464678178963893296e-01
2.480376766091051677e-01
2.480376766091051677e-01
2.496075353218210335e-01
2.480376766091051677e-01
2.480376766091051677e-01
2.464678178963893296e-01
2.464678178963893296e-01
2.464678178963893296e-01
2.464678178963893296e-01
2.464678178963893296e-01
2.433281004709576256e-01
2.339089481946624860e-01
2.135007849293563686e-01
1.805337519623233800e-01
1.695447409733124022e-01
2.621664050235478771e-01
3.375196232339089386e-01
4.536891679748822348e-01
5.478806907378336311e-01
5.934065934065934078e-01
5.620094191522763127e-01
5.117739403453689384e-01
4.285714285714285476e-01
3.924646781789639105e-01
3.343799058084772624e-01
2.967032967032967039e-01
2.684458398744112850e-01
2.496075353218210335e-01
2.339089481946624860e-01
2.323390894819466201e-01
2.276295133437990503e-01
2.244897959183673464e-01
2.229199372056514805e-01
2.197802197802197766e-01
2.197802197802197766e-01
2.166405023547880726e-01
2.166405023547880726e-01
2.150706436420722067e-01
2.135007849293563686e-01
2.135007849293563686e-01
2.103610675039246369e-01
2.087912087912087988e-01
2.072213500784929330e-01
2.056514913657770671e-01
2.040816326530612290e-01
2.009419152276295251e-01
1.993720565149136592e-01
1.962323390894819553e-01
1.946624803767660894e-01
1.899529042386185196e-01
1.852433281004709498e-01
1.821036106750392458e-01
1.773940345368916760e-01
1.726844583987441062e-01
1.695447409733124022e-01
1.632653061224489666e-01
1.569858712715855587e-01
1.522762951334379888e-01
1.491365777080062849e-01
1.444270015698587151e-01
1.444270015698587151e-01
1.444270015698587151e-01
1.459968602825745809e-01
1.475667189952904190e-01
1.491365777080062849e-01
1.538461538461538547e-01
1.569858712715855587e-01
1.648351648351648324e-01
1.726844583987441062e-01
1.805337519623233800e-01
1.868131868131868156e-01
1.946624803767660894e-01
2.009419152276295251e-01
2.056514913657770671e-01
2.103610675039246369e-01
2.150706436420722067e-01
2.197802197802197766e-01
2.213500784929356424e-01
2.229199372056514805e-01
2.260596546310832122e-01
2.260596546310832122e-01
2.260596546310832122e-01
2.244897959183673464e-01
2.260596546310832122e-01
2.291993720565149162e-01
2.291993720565149162e-01
2.307692307692307820e-01
2.307692307692307820e-01
2.307692307692307820e-01
2.307692307692307820e-01
2.307692307692307820e-01
2.307692307692307820e-01
2.307692307692307820e-01
2.307692307692307820e-01
2.307692307692307820e-01
2.307692307692307820e-01
2.307692307692307820e-01
2.291993720565149162e-01
2.260596546310832122e-01
2.260596546310832122e-01
2.260596546310832122e-01
2.260596546310832122e-01
2.260596546310832122e-01
2.244897959183673464e-01
2.244897959183673464e-01
2.244897959183673464e-01
2.244897959183673464e-01
2.260596546310832122e-01
2.260596546310832122e-01
2.260596546310832122e-01
2.276295133437990503e-01
2.276295133437990503e-01
2.276295133437990503e-01
2.291993720565149162e-01
2.291993720565149162e-01
2.291993720565149162e-01
2.291993720565149162e-01
2.291993720565149162e-01
2.307692307692307820e-01
2.307692307692307820e-01
2.307692307692307820e-01
2.323390894819466201e-01
2.323390894819466201e-01
2.323390894819466201e-01
2.323390894819466201e-01
2.339089481946624860e-01
2.339089481946624860e-01
2.339089481946624860e-01
2.339089481946624860e-01
2.339089481946624860e-01
2.339089481946624860e-01
2.339089481946624860e-01
2.339089481946624860e-01
2.339089481946624860e-01
2.339089481946624860e-01
2.339089481946624860e-01
2.339089481946624860e-01
2.339089481946624860e-01
2.339089481946624860e-01
2.339089481946624860e-01
2.339089481946624860e-01
2.339089481946624860e-01
2.339089481946624860e-01
2.339089481946624860e-01
2.339089481946624860e-01
2.339089481946624860e-01
2.339089481946624860e-01
2.339089481946624860e-01
2.339089481946624860e-01
2.339089481946624860e-01
2.339089481946624860e-01
2.339089481946624860e-01
2.339089481946624860e-01
2.339089481946624860e-01
2.339089481946624860e-01
2.339089481946624860e-01
2.339089481946624860e-01
2.339089481946624860e-01
2.339089481946624860e-01
2.339089481946624860e-01
2.339089481946624860e-01
2.354788069073783241e-01
2.354788069073783241e-01
2.354788069073783241e-01
2.354788069073783241e-01
2.354788069073783241e-01
2.354788069073783241e-01
2.339089481946624860e-01
2.339089481946624860e-01
2.339089481946624860e-01
2.354788069073783241e-01
2.354788069073783241e-01
2.339089481946624860e-01
2.307692307692307820e-01
2.276295133437990503e-01
2.260596546310832122e-01
2.260596546310832122e-01
2.244897959183673464e-01
2.244897959183673464e-01
2.229199372056514805e-01
2.197802197802197766e-01
2.135007849293563686e-01
2.119309262166405028e-01
2.182103610675039385e-01
2.417582417582417598e-01
2.417582417582417598e-01
2.417582417582417598e-01
2.417582417582417598e-01
2.417582417582417598e-01
2.480376766091051677e-01
3.532182103610674861e-01
3.563579277864992179e-01
3.657770800627943575e-01
3.736263736263736313e-01
3.814756671899529050e-01
3.893249607535321788e-01
3.971742543171114526e-01
4.018838304552590501e-01
4.065934065934065922e-01
4.034536891679748605e-01
3.987441130298273184e-01
3.893249607535321788e-01
3.799058084772370392e-01
3.720565149136577654e-01
3.642072213500784916e-01
3.563579277864992179e-01
3.500784929356358099e-01
2.464678178963893296e-01
2.056514913657770671e-01
1.773940345368916760e-01
1.522762951334379888e-01
3.626373626373626258e-01
3.767660910518053630e-01
1.522762951334379888e-01
2.213500784929356424e-01
2.464678178963893296e-01
2.857142857142856984e-01
3.061224489795918435e-01
2.935635792778649722e-01
3.485086342229199441e-01
3.516483516483516758e-01
3.830455259026687709e-01
3.830455259026687709e-01
3.877551020408163129e-01
3.893249607535321788e-01
2.527472527472527375e-01
2.511773940345368716e-01
2.511773940345368716e-01
2.496075353218210335e-01
2.480376766091051677e-01
2.480376766091051677e-01
2.480376766091051677e-01
2.464678178963893296e-01
2.464678178963893296e-01
2.464678178963893296e-01
2.464678178963893296e-01
2.448979591836734637e-01
2.433281004709576256e-01
2.417582417582417598e-01
2.401883830455258939e-01
2.370486656200941900e-01
2.370486656200941900e-01
2.354788069073783241e-01
2.339089481946624860e-01
2.307692307692307820e-01
2.276295133437990503e-01
2.229199372056514805e-01
2.197802197802197766e-01
2.182103610675039385e-01
2.135007849293563686e-01
2.087912087912087988e-01
2.040816326530612290e-01
1.993720565149136592e-01
1.930926216640502235e-01
1.899529042386185196e-01
1.852433281004709498e-01
1.821036106750392458e-01
1.805337519623233800e-01
1.821036106750392458e-01
1.852433281004709498e-01
1.852433281004709498e-01
1.899529042386185196e-01
1.930926216640502235e-01
1.978021978021977934e-01
2.056514913657770671e-01
2.135007849293563686e-01
2.213500784929356424e-01
2.276295133437990503e-01
2.323390894819466201e-01
2.354788069073783241e-01
2.386185243328100558e-01
2.417582417582417598e-01
2.448979591836734637e-01
2.464678178963893296e-01
2.464678178963893296e-01
2.480376766091051677e-01
2.480376766091051677e-01
2.480376766091051677e-01
2.496075353218210335e-01
2.480376766091051677e-01
2.480376766091051677e-01
2.480376766091051677e-01
2.480376766091051677e-01
2.464678178963893296e-01
2.464678178963893296e-01
2.464678178963893296e-01
2.464678178963893296e-01
2.464678178963893296e-01
2.464678178963893296e-01
2.464678178963893296e-01
2.464678178963893296e-01
2.433281004709576256e-01
2.433281004709576256e-01
2.433281004709576256e-01
2.433281004709576256e-01
2.433281004709576256e-01
2.433281004709576256e-01
2.433281004709576256e-01
2.433281004709576256e-01
2.433281004709576256e-01
2.448979591836734637e-01
2.464678178963893296e-01
2.464678178963893296e-01
2.464678178963893296e-01
2.464678178963893296e-01
2.464678178963893296e-01
2.464678178963893296e-01
2.480376766091051677e-01
2.480376766091051677e-01
2.480376766091051677e-01
2.496075353218210335e-01
2.496075353218210335e-01
2.480376766091051677e-01
2.480376766091051677e-01
2.480376766091051677e-01
2.480376766091051677e-01
2.480376766091051677e-01
2.464678178963893296e-01
2.464678178963893296e-01
2.464678178963893296e-01
2.464678178963893296e-01
2.464678178963893296e-01
2.464678178963893296e-01
2.464678178963893296e-01
2.464678178963893296e-01
2.464678178963893296e-01
2.464678178963893296e-01
2.464678178963893296e-01
2.464678178963893296e-01
2.480376766091051677e-01
2.480376766091051677e-01
2.480376766091051677e-01
2.480376766091051677e-01
2.480376766091051677e-01
2.480376766091051677e-01
2.480376766091051677e-01
2.480376766091051677e-01
2.480376766091051677e-01
2.480376766091051677e-01
2.480376766091051677e-01
2.480376766091051677e-01
2.496075353218210335e-01
2.480376766091051677e-01
2.480376766091051677e-01
2.480376766091051677e-01
2.480376766091051677e-01
2.496075353218210335e-01
2.496075353218210335e-01
2.496075353218210335e-01
2.496075353218210335e-01
2.496075353218210335e-01
2.511773940345368716e-01
2.511773940345368716e-01
2.511773940345368716e-01
2.511773940345368716e-01
2.511773940345368716e-01
2.511773940345368716e-01
2.496075353218210335e-01
2.480376766091051677e-01
2.464678178963893296e-01
2.464678178963893296e-01
2.433281004709576256e-01
2.417582417582417598e-01
2.370486656200941900e-01
2.370486656200941900e-01
2.370486656200941900e-01
2.370486656200941900e-01
2.370486656200941900e-01
2.401883830455258939e-01
2.417582417582417598e-01
2.417582417582417598e-01
2.417582417582417598e-01
2.433281004709576256e-01
2.464678178963893296e-01
2.464678178963893296e-01
2.464678178963893296e-01
2.480376766091051677e-01
2.496075353218210335e-01
2.511773940345368716e-01
2.527472527472527375e-01
2.527472527472527375e-01
2.527472527472527375e-01
2.527472527472527375e-01
2.527472527472527375e-01
2.527472527472527375e-01
2.527472527472527375e-01
2.527472527472527375e-01
2.527472527472527375e-01
2.527472527472527375e-01
2.527472527472527375e-01
2.511773940345368716e-01
2.496075353218210335e-01
2.307692307692307820e-01
1.930926216640502235e-01
1.601255886970172626e-01
1.255886970172684358e-01
9.450549450549450281e-01
9.324960753532182123e-01
1.821036106750392458e-01
2.260596546310832122e-01
2.637362637362637430e-01
3.029827315541601118e-01
2.935635792778649722e-01
2.810047095761381564e-01
2.700156985871271509e-01
2.637362637362637430e-01
2.605965463108320113e-01
2.590266875981161454e-01
2.590266875981161454e-01
2.590266875981161454e-01
2.590266875981161454e-01
2.574568288854003351e-01
2.574568288854003351e-01
2.574568288854003351e-01
2.558869701726844692e-01
2.558869701726844692e-01
2.558869701726844692e-01
2.543171114599686033e-01
2.543171114599686033e-01
2.527472527472527375e-01
2.527472527472527375e-01
2.511773940345368716e-01
2.511773940345368716e-01
2.496075353218210335e-01
2.480376766091051677e-01
2.480376766091051677e-01
2.464678178963893296e-01
2.464678178963893296e-01
2.417582417582417598e-01
2.401883830455258939e-01
2.354788069073783241e-01
2.323390894819466201e-01
2.276295133437990503e-01
2.229199372056514805e-01
2.182103610675039385e-01
2.135007849293563686e-01
2.072213500784929330e-01
2.025117739403453632e-01
1.946624803767660894e-01
1.915227629513343854e-01
1.852433281004709498e-01
1.836734693877551117e-01
1.821036106750392458e-01
1.836734693877551117e-01
1.868131868131868156e-01
1.915227629513343854e-01
1.962323390894819553e-01
2.025117739403453632e-01
2.103610675039246369e-01
2.166405023547880726e-01
2.229199372056514805e-01
2.291993720565149162e-01
2.339089481946624860e-01
2.401883830455258939e-01
2.417582417582417598e-01
2.464678178963893296e-01
2.480376766091051677e-01
2.511773940345368716e-01
2.511773940345368716e-01
2.527472527472527375e-01
2.543171114599686033e-01
2.543171114599686033e-01
2.543171114599686033e-01
2.543171114599686033e-01
2.543171114599686033e-01
2.543171114599686033e-01
2.543171114599686033e-01
2.543171114599686033e-01
2.543171114599686033e-01
2.543171114599686033e-01
2.543171114599686033e-01
2.543171114599686033e-01
2.527472527472527375e-01
2.527472527472527375e-01
2.527472527472527375e-01
2.527472527472527375e-01
2.527472527472527375e-01
2.527472527472527375e-01
2.511773940345368716e-01
2.511773940345368716e-01
2.511773940345368716e-01
2.511773940345368716e-01
2.511773940345368716e-01
2.519623233908948046e-01
2.527472527472527375e-01
2.527472527472527375e-01
2.527472527472527375e-01
2.527472527472527375e-01
2.527472527472527375e-01
2.527472527472527375e-01
2.527472527472527375e-01
2.543171114599686033e-01
2.543171114599686033e-01
2.543171114599686033e-01
2.558869701726844692e-01
2.558869701726844692e-01
2.574568288854003351e-01
2.574568288854003351e-01
2.574568288854003351e-01
2.574568288854003351e-01
2.574568288854003351e-01
2.574568288854003351e-01
2.574568288854003351e-01
2.574568288854003351e-01
2.574568288854003351e-01
2.574568288854003351e-01
2.574568288854003351e-01
2.558869701726844692e-01
2.558869701726844692e-01
2.558869701726844692e-01
2.558869701726844692e-01
2.558869701726844692e-01
2.574568288854003351e-01
2.590266875981161454e-01
2.605965463108320113e-01
2.605965463108320113e-01
2.605965463108320113e-01
2.605965463108320113e-01
2.605965463108320113e-01
2.605965463108320113e-01
2.605965463108320113e-01
2.605965463108320113e-01
2.605965463108320113e-01
2.605965463108320113e-01
2.605965463108320113e-01
2.590266875981161454e-01
2.590266875981161454e-01
2.590266875981161454e-01
2.590266875981161454e-01
2.574568288854003351e-01
2.574568288854003351e-01
2.574568288854003351e-01
2.574568288854003351e-01
2.558869701726844692e-01
2.558869701726844692e-01
2.543171114599686033e-01
2.543171114599686033e-01
2.511773940345368716e-01
2.496075353218210335e-01
2.480376766091051677e-01
2.480376766091051677e-01
2.480376766091051677e-01
2.511773940345368716e-01
2.558869701726844692e-01
2.574568288854003351e-01
2.590266875981161454e-01
2.605965463108320113e-01
2.605965463108320113e-01
2.621664050235478771e-01
2.637362637362637430e-01
2.637362637362637430e-01
2.668759811616954747e-01
2.668759811616954747e-01
2.668759811616954747e-01
2.684458398744112850e-01
2.700156985871271509e-01
2.700156985871271509e-01
2.700156985871271509e-01
2.700156985871271509e-01
2.700156985871271509e-01
2.715855572998430167e-01
2.715855572998430167e-01
2.715855572998430167e-01
2.715855572998430167e-01
2.715855572998430167e-01
2.590266875981161454e-01
2.291993720565149162e-01
1.883830455259026815e-01
1.459968602825745809e-01
1.114599686028257403e-01
5.133437990580848043e-01
1.616954474097331285e-01
2.150706436420722067e-01
2.464678178963893296e-01
3.155416012558869832e-01
3.139717425431711173e-01
